# Pulseq sequence file
# Created by MATLAB mr toolbox

[VERSION]
major 1
minor 5
revision 1

[DEFINITIONS]
AdcRasterTime 1e-07 
BlockDurationRaster 1e-05 
FOV 0.22 0.22 0.003 
GradientRasterTime 1e-05 
Name epi 
RadiofrequencyRasterTime 1e-06 
ReadoutOversamplingFactor 2 
ReceiverGainHigh 1 
SliceGap 0.0015 
SlicePositions 0 
SliceThickness 0.003 
TargetGriddedSamples 128 
TotalDuration 3.94342 
TrapezoidGriddingParameters 9e-05 0.00052 9e-05 3.6e-05 0.0006272 

# Format of blocks:
# NUM DUR RF  GX  GY  GZ  ADC  EXT
[BLOCKS]
 1 194016   0   0   0   0  0  0
 2   0   0   0   0   0  0  1
 3 912   1   0   0   1  0  0
 4 226   2   0   0   2  0  2
 5  78   0   3   0   4  0  4
 6   0   0   0   0   0  0  7
 7  70   0   5   0   0  1  0
 8   0   0   0   0   0  0 10
 9  70   0   6   0   0  1  0
10   0   0   0   0   0  0 11
11  70   0   5   0   0  1  0
12  78   0   0   7   0  0 13
13 326   0   0   0   0  0  0
14  70   0   6   8   9  1 16
15  70   0   5  10  11  1 18
16  70   0   6  10  12  1 16
17  70   0   5  10  11  1 18
18  70   0   6  10  12  1 16
19  70   0   5  10  11  1 18
20  70   0   6  10  12  1 16
21  70   0   5  10  11  1 18
22  70   0   6  10  12  1 16
23  70   0   5  10  11  1 18
24  70   0   6  10  12  1 16
25  70   0   5  10  11  1 18
26  70   0   6  10  12  1 16
27  70   0   5  10  11  1 18
28  70   0   6  10  12  1 16
29  70   0   5  10  11  1 18
30  70   0   6  10  12  1 16
31  70   0   5  10  11  1 18
32  70   0   6  10  12  1 16
33  70   0   5  10  11  1 18
34  70   0   6  10  12  1 16
35  70   0   5  10  11  1 18
36  70   0   6  10  12  1 16
37  70   0   5  10  11  1 18
38  70   0   6  10  12  1 16
39  70   0   5  10  11  1 18
40  70   0   6  10  12  1 16
41  70   0   5  10  11  1 18
42  70   0   6  10  12  1 16
43  70   0   5  10  11  1 18
44  70   0   6  10  12  1 16
45  70   0   5  10  11  1 18
46  70   0   6  10  12  1 16
47  70   0   5  10  11  1 18
48  70   0   6  10  12  1 16
49  70   0   5  10  11  1 18
50  70   0   6  10  12  1 16
51  70   0   5  10  11  1 18
52  70   0   6  10  12  1 16
53  70   0   5  10  11  1 18
54  70   0   6  10  12  1 16
55  70   0   5  10  11  1 18
56  70   0   6  10  12  1 16
57  70   0   5  10  11  1 18
58  70   0   6  10  12  1 16
59  70   0   5  10  11  1 18
60  70   0   6  10  12  1 16
61  70   0   5  10  11  1 18
62  70   0   6  10  12  1 16
63  70   0   5  10  11  1 18
64  70   0   6  10  12  1 16
65  70   0   5  10  11  1 18
66  70   0   6  10  12  1 16
67  70   0   5  10  11  1 18
68  70   0   6  10  12  1 16
69  70   0   5  10  11  1 18
70  70   0   6  10  12  1 16
71  70   0   5  10  11  1 18
72  70   0   6  10  12  1 16
73  70   0   5  10  11  1 18
74  70   0   6  10  12  1 16
75  70   0   5  10  11  1 18
76  70   0   6  10  12  1 16
77  70   0   5  13  14  1 18
78   0   0   0   0   0  0 19
79 194016   0   0   0   0  0  0
80   0   0   0   0   0  0 20

# Format of RF events:
# id ampl. mag_id phase_id time_shape_id center delay freqPPM phasePPM freq phase use
# ..   Hz      ..       ..            ..     us    us     ppm  rad/MHz   Hz   rad  ..
# Field 'use' is the initial of: 
#   excitation refocusing inversion saturation preparation other undefined
[RF]
1       129.71 1 2 3 4000 100 0 0 -424.504 10.6689 s
2       1004.9 4 5 0 1000 130 0 0 0 -0 e

# Format of arbitrary gradients:
#   time_shape_id of 0 means default timing (stepping with grad_raster starting at 1/2 of grad_raster)
# id amplitude first last amp_shape_id time_shape_id delay
# ..      Hz/m  Hz/m Hz/m        ..         ..          us
[GRADIENTS]
8       -13369            0       -13369 6 7 520
9      -877193            0      -877193 6 8 520
10       -13369       -13369       -13369 9 10 0
11      -877193      -877193       877193 11 12 0
12       877193       877193      -877193 13 12 0
13       -13369       -13369            0 14 15 0
14      -877193      -877193            0 14 16 0

# Format of trapezoid gradients:
# id amplitude rise flat fall delay
# ..      Hz/m   us   us   us    us
[TRAP]
 1  1.35135e+06 250  490 250 8130
 2       666667 130 2000 130   0
 3       869875 170    0 170 440
 4 -1.33962e+06 250  280 250   0
 5      -484848  90  520  90   0
 6       484848  90  520  90   0
 7       190418  40  700  40   0

# Format of ADC events:
# id num dwell delay freqPPM phasePPM freq phase phase_id
# ..  ..    ns    us     ppm  rad/MHz   Hz   rad       ..
[ADC]
1 128 4900 36 0 0 0 0 0

# Format of extension lists:
# id type ref next_id
# next_id of 0 terminates the list
# Extension list is followed by extension specifications
[EXTENSIONS]
1 1 1 0
2 3 1 0
3 1 2 0
4 1 3 3
5 1 4 0
6 1 5 5
7 1 6 6
8 1 6 0
9 1 7 8
10 1 8 9
11 1 9 6
12 1 10 8
13 1 11 12
14 4 1 0
15 1 7 14
16 1 8 15
17 1 4 14
18 1 5 17
19 4 2 0
20 4 3 0

# Extension specification for digital output and input triggers:
# id type channel delay (us) duration (us)
extension TRIGGERS 3
1 1 1 0 100

# Extension specification for setting labels:
# id set labelstring
extension LABELSET 1
1 0 SLC
2 1 NAV
3 32 LIN
4 1 REV
5 1 SEG
6 0 AVG
7 0 REV
8 0 SEG
9 1 AVG
10 -1 LIN
11 0 NAV

# Extension specification for increasing labels:
# id inc labelstring
extension LABELINC 4
1 1 LIN
2 1 SLC
3 1 REP

# Sequence Shapes
[SHAPES]

shape_id 1
num_samples 800
0.000119120081
0.000124624967
0.000130369487
0.000136363358
0.000142616654
0.000149139823
0.0001559437
0.000163039513
0.000170438904
0.000178153937
0.000186197112
0.000194581382
0.000203320166
0.00021242736
0.00022191736
0.000231805069
0.000242105919
0.000252835884
0.0002640115
0.000275649877
0.000287768723
0.000300386355
0.000313521726
0.000327194434
0.000341424751
0.000356233634
0.000371642753
0.000387674506
0.000404352044
0.000421699291
0.000439740965
0.000458502604
0.000478010587
0.000498292156
0.000519375444
0.000541289499
0.000564064305
0.000587730813
0.000612320966
0.000637867722
0.000664405088
0.000691968142
0.000720593064
0.000750317164
0.000781178914
0.000813217976
0.000846475231
0.000880992814
0.000916814144
0.000953983954
0.000992548328
0.00103255473
0.00107405205
0.00111709061
0.00116172223
0.00120800026
0.00125597958
0.0013057167
0.00135726974
0.00141069849
0.00146606445
0.00152343087
0.00158286277
0.00164442703
0.00170819236
0.0017742294
0.00184261072
0.00191341089
0.00198670652
0.00206257629
0.00214110098
0.00222236356
0.00230644919
0.00239344527
0.00248344153
0.00257653
0.00267280512
0.00277236375
0.00287530525
0.00298173147
0.00309174685
0.00320545845
0.003322976
0.00344441192
0.00356988142
0.00369950248
0.00383339598
0.00397168567
0.00411449826
0.00426196348
0.00441421407
0.00457138591
0.00473361799
0.0049010525
0.00507383488
0.00525211384
0.00543604145
0.00562577314
0.00582146777
0.00602328769
0.00623139875
0.00644597039
0.00666717564
0.00689519119
0.00713019745
0.00737237856
0.00762192243
0.00787902084
0.00814386939
0.00841666765
0.00869761908
0.00898693116
0.0092848154
0.00959148737
0.00990716673
0.0102320773
0.010566447
0.010910508
0.0112644967
0.0116286537
0.012003224
0.0123884568
0.0127846057
0.0131919287
0.0136106879
0.0140411501
0.0144835865
0.0149382726
0.0154054883
0.0158855181
0.0163786509
0.0168851801
0.0174054034
0.0179396232
0.0184881462
0.0190512836
0.0196293513
0.0202226692
0.020831562
0.0214563586
0.0220973926
0.0227550015
0.0234295277
0.0241213176
0.0248307219
0.0255580956
0.0263037982
0.0270681929
0.0278516475
0.0286545335
0.0294772268
0.030320107
0.0311835578
0.0320679667
0.032973725
0.0339012277
0.0348508735
0.0358230646
0.0368182067
0.0378367089
0.0388789836
0.0399454464
0.0410365159
0.0421526139
0.0432941649
0.0444615962
0.0456553378
0.0468758221
0.048123484
0.0493987606
0.050702091
0.0520339164
0.0533946798
0.0547848258
0.0562048004
0.0576550512
0.0591360267
0.0606481764
0.0621919508
0.0637678008
0.0653761778
0.0670175334
0.0686923192
0.0704009868
0.0721439872
0.0739217708
0.0757347872
0.077583485
0.0794683115
0.0813897125
0.0833481317
0.0853440113
0.0873777909
0.0894499077
0.091560796
0.0937108871
0.0959006092
0.0981303865
0.10040064
0.102711785
0.105064235
0.107458396
0.10989467
0.112373455
0.114895142
0.117460116
0.120068756
0.122721434
0.125418517
0.128160363
0.130947322
0.133779738
0.136657945
0.139582271
0.142553033
0.145570538
0.148635087
0.151746968
0.154906461
0.158113833
0.161369342
0.164673235
0.168025746
0.171427098
0.174877503
0.178377158
0.181926248
0.185524945
0.189173409
0.192871782
0.196620195
0.200418765
0.20426759
0.208166757
0.212116335
0.216116377
0.220166922
0.224267989
0.228419583
0.23262169
0.23687428
0.241177302
0.245530691
0.24993436
0.254388206
0.258892105
0.263445914
0.268049471
0.272702594
0.27740508
0.282156707
0.286957231
0.291806388
0.296703892
0.301649437
0.306642694
0.311683312
0.316770921
0.321905124
0.327085506
0.332311627
0.337583025
0.342899215
0.34825969
0.353663918
0.359111344
0.364601392
0.370133461
0.375706925
0.381321136
0.386975423
0.392669091
0.398401419
0.404171664
0.40997906
0.415822817
0.421702118
0.427616128
0.433563983
0.439544798
0.445557665
0.451601651
0.457675799
0.463779133
0.469910648
0.47606932
0.482254102
0.488463923
0.49469769
0.500954289
0.507232582
0.51353141
0.519849594
0.526185933
0.532539203
0.538908163
0.545291548
0.551688076
0.558096445
0.564515331
0.570943395
0.577379277
0.583821599
0.590268966
0.596719967
0.603173172
0.609627136
0.616080397
0.62253148
0.628978892
0.635421129
0.641856672
0.648283987
0.65470153
0.661107744
0.66750106
0.673879898
0.68024267
0.686587775
0.692913606
0.699218546
0.705500971
0.711759248
0.717991742
0.724196808
0.730372799
0.736518061
0.74263094
0.748709776
0.754752909
0.760758676
0.766725415
0.772651463
0.778535159
0.784374843
0.790168858
0.795915549
0.801613266
0.807260363
0.812855202
0.818396148
0.823881575
0.829309865
0.834679408
0.839988604
0.845235864
0.850419607
0.855538267
0.860590291
0.865574137
0.870488278
0.875331203
0.880101417
0.884797439
0.889417807
0.893961078
0.898425827
0.902810647
0.907114154
0.911334982
0.91547179
0.919523256
0.923488085
0.927365001
0.931152758
0.934850131
0.938455922
0.941968961
0.945388102
0.948712229
0.951940255
0.955071121
0.958103795
0.96103728
0.963870605
0.966602833
0.969233059
0.971760407
0.974184037
0.976503141
0.978716944
0.980824705
0.982825719
0.984719313
0.986504852
0.988181735
0.989749397
0.991207311
0.992554983
0.993791959
0.99491782
0.995932185
0.996834712
0.997625093
0.998303062
0.998868388
0.999320879
0.999660382
0.999886781
1
1
0.999886781
0.999660382
0.999320879
0.998868388
0.998303062
0.997625093
0.996834712
0.995932185
0.99491782
0.993791959
0.992554983
0.991207311
0.989749397
0.988181735
0.986504852
0.984719313
0.982825719
0.980824705
0.978716944
0.976503141
0.974184037
0.971760407
0.969233059
0.966602833
0.963870605
0.96103728
0.958103795
0.955071121
0.951940255
0.948712229
0.945388102
0.941968961
0.938455922
0.934850131
0.931152758
0.927365001
0.923488085
0.919523256
0.91547179
0.911334982
0.907114154
0.902810647
0.898425827
0.893961078
0.889417807
0.884797439
0.880101417
0.875331203
0.870488278
0.865574137
0.860590291
0.855538267
0.850419607
0.845235864
0.839988604
0.834679408
0.829309865
0.823881575
0.818396148
0.812855202
0.807260363
0.801613266
0.795915549
0.790168858
0.784374843
0.778535159
0.772651463
0.766725415
0.760758676
0.754752909
0.748709776
0.74263094
0.736518061
0.730372799
0.724196808
0.717991742
0.711759248
0.705500971
0.699218546
0.692913606
0.686587775
0.68024267
0.673879898
0.66750106
0.661107744
0.65470153
0.648283987
0.641856672
0.635421129
0.628978892
0.62253148
0.616080397
0.609627136
0.603173172
0.596719967
0.590268966
0.583821599
0.577379277
0.570943395
0.564515331
0.558096445
0.551688076
0.545291548
0.538908163
0.532539203
0.526185933
0.519849594
0.51353141
0.507232582
0.500954289
0.49469769
0.488463923
0.482254102
0.47606932
0.469910648
0.463779133
0.457675799
0.451601651
0.445557665
0.439544798
0.433563983
0.427616128
0.421702118
0.415822817
0.40997906
0.404171664
0.398401419
0.392669091
0.386975423
0.381321136
0.375706925
0.370133461
0.364601392
0.359111344
0.353663918
0.34825969
0.342899215
0.337583025
0.332311627
0.327085506
0.321905124
0.316770921
0.311683312
0.306642694
0.301649437
0.296703892
0.291806388
0.286957231
0.282156707
0.27740508
0.272702594
0.268049471
0.263445914
0.258892105
0.254388206
0.24993436
0.245530691
0.241177302
0.23687428
0.23262169
0.228419583
0.224267989
0.220166922
0.216116377
0.212116335
0.208166757
0.20426759
0.200418765
0.196620195
0.192871782
0.189173409
0.185524945
0.181926248
0.178377158
0.174877503
0.171427098
0.168025746
0.164673235
0.161369342
0.158113833
0.154906461
0.151746968
0.148635087
0.145570538
0.142553033
0.139582271
0.136657945
0.133779738
0.130947322
0.128160363
0.125418517
0.122721434
0.120068756
0.117460116
0.114895142
0.112373455
0.10989467
0.107458396
0.105064235
0.102711785
0.10040064
0.0981303865
0.0959006092
0.0937108871
0.091560796
0.0894499077
0.0873777909
0.0853440113
0.0833481317
0.0813897125
0.0794683115
0.077583485
0.0757347872
0.0739217708
0.0721439872
0.0704009868
0.0686923192
0.0670175334
0.0653761778
0.0637678008
0.0621919508
0.0606481764
0.0591360267
0.0576550512
0.0562048004
0.0547848258
0.0533946798
0.0520339164
0.050702091
0.0493987606
0.048123484
0.0468758221
0.0456553378
0.0444615962
0.0432941649
0.0421526139
0.0410365159
0.0399454464
0.0388789836
0.0378367089
0.0368182067
0.0358230646
0.0348508735
0.0339012277
0.032973725
0.0320679667
0.0311835578
0.030320107
0.0294772268
0.0286545335
0.0278516475
0.0270681929
0.0263037982
0.0255580956
0.0248307219
0.0241213176
0.0234295277
0.0227550015
0.0220973926
0.0214563586
0.020831562
0.0202226692
0.0196293513
0.0190512836
0.0184881462
0.0179396232
0.0174054034
0.0168851801
0.0163786509
0.0158855181
0.0154054883
0.0149382726
0.0144835865
0.0140411501
0.0136106879
0.0131919287
0.0127846057
0.0123884568
0.012003224
0.0116286537
0.0112644967
0.010910508
0.010566447
0.0102320773
0.00990716673
0.00959148737
0.0092848154
0.00898693116
0.00869761908
0.00841666765
0.00814386939
0.00787902084
0.00762192243
0.00737237856
0.00713019745
0.00689519119
0.00666717564
0.00644597039
0.00623139875
0.00602328769
0.00582146777
0.00562577314
0.00543604145
0.00525211384
0.00507383488
0.0049010525
0.00473361799
0.00457138591
0.00441421407
0.00426196348
0.00411449826
0.00397168567
0.00383339598
0.00369950248
0.00356988142
0.00344441192
0.003322976
0.00320545845
0.00309174685
0.00298173147
0.00287530525
0.00277236375
0.00267280512
0.00257653
0.00248344153
0.00239344527
0.00230644919
0.00222236356
0.00214110098
0.00206257629
0.00198670652
0.00191341089
0.00184261072
0.0017742294
0.00170819236
0.00164442703
0.00158286277
0.00152343087
0.00146606445
0.00141069849
0.00135726974
0.0013057167
0.00125597958
0.00120800026
0.00116172223
0.00111709061
0.00107405205
0.00103255473
0.000992548328
0.000953983954
0.000916814144
0.000880992814
0.000846475231
0.000813217976
0.000781178914
0.000750317164
0.000720593064
0.000691968142
0.000664405088
0.000637867722
0.000612320966
0.000587730813
0.000564064305
0.000541289499
0.000519375444
0.000498292156
0.000478010587
0.000458502604
0.000439740965
0.000421699291
0.000404352044
0.000387674506
0.000371642753
0.000356233634
0.000341424751
0.000327194434
0.000313521726
0.000300386355
0.000287768723
0.000275649877
0.0002640115
0.000252835884
0.000242105919
0.000231805069
0.00022191736
0.00021242736
0.000203320166
0.000194581382
0.000186197112
0.000178153937
0.000170438904
0.000163039513
0.0001559437
0.000149139823
0.000142616654
0.000136363358
0.000130369487
0.000124624967
0.000119120081

shape_id 2
num_samples 800
0
0
798

shape_id 3
num_samples 800
5
10
10
797

shape_id 4
num_samples 2000
4.03101626e-05
0.000121921908
0.000204857939
0.000289121177
0.000374714599
0.000461641239
0.000549904184
0.000639506575
0.000730451607
0.000822742523
0.000916382619
0.00101137524
0.00110772377
0.00120543164
0.00130450234
0.0014049394
0.00150674636
0.00160992683
0.00171448447
0.00182042293
0.00192774593
0.00203645722
0.00214656057
0.00225805978
0.00237095868
0.00248526113
0.00260097101
0.00271809221
0.00283662865
0.00295658427
0.00307796302
0.00320076886
0.00332500577
0.00345067771
0.00357778869
0.00370634269
0.0038363437
0.00396779571
0.0041007027
0.00423506866
0.00437089755
0.00450819334
0.00464695997
0.00478720136
0.00492892143
0.00507212406
0.00521681312
0.00536299243
0.00551066581
0.00565983703
0.00581050982
0.00596268787
0.00611637485
0.00627157436
0.00642828997
0.00658652519
0.00674628347
0.00690756823
0.0070703828
0.00723473046
0.00740061443
0.00756803785
0.0077370038
0.00790751527
0.00807957519
0.00825318639
0.00842835162
0.00860507356
0.00878335477
0.00896319773
0.00914460483
0.00932757834
0.00951212045
0.00969823322
0.00988591861
0.0100751785
0.0102660145
0.0104584283
0.0106524214
0.0108479951
0.0110451507
0.0112438891
0.0114442115
0.0116461185
0.0118496109
0.0120546891
0.0122613535
0.0124696044
0.0126794417
0.0128908654
0.0131038751
0.0133184705
0.0135346509
0.0137524154
0.0139717632
0.0141926931
0.0144152037
0.0146392936
0.0148649608
0.0150922037
0.01532102
0.0155514074
0.0157833634
0.0160168852
0.01625197
0.0164886145
0.0167268153
0.016966569
0.0172078715
0.0174507189
0.017695107
0.017941031
0.0181884864
0.0184374681
0.0186879708
0.0189399891
0.0191935172
0.0194485492
0.0197050787
0.0199630993
0.0202226042
0.0204835864
0.0207460385
0.0210099531
0.0212753221
0.0215421376
0.0218103912
0.0220800741
0.0223511773
0.0226236917
0.0228976077
0.0231729155
0.0234496049
0.0237276656
0.0240070868
0.0242878575
0.0245699663
0.0248534017
0.0251381518
0.0254242042
0.0257115464
0.0260001656
0.0262900486
0.0265811819
0.0268735516
0.0271671437
0.0274619436
0.0277579366
0.0280551076
0.0283534411
0.0286529213
0.0289535322
0.0292552573
0.0295580799
0.0298619828
0.0301669486
0.0304729595
0.0307799975
0.0310880441
0.0313970804
0.0317070873
0.0320180455
0.0323299349
0.0326427356
0.0329564269
0.033270988
0.0335863978
0.0339026346
0.0342196766
0.0345375015
0.0348560869
0.0351754096
0.0354954465
0.0358161739
0.0361375679
0.0364596041
0.0367822578
0.0371055042
0.0374293177
0.0377536727
0.0380785431
0.0384039026
0.0387297244
0.0390559815
0.0393826463
0.0397096912
0.0400370881
0.0403648084
0.0406928235
0.0410211041
0.0413496209
0.0416783441
0.0420072435
0.0423362887
0.0426654489
0.0429946931
0.0433239897
0.043653307
0.0439826129
0.0443118751
0.0446410609
0.0449701371
0.0452990704
0.0456278273
0.0459563737
0.0462846754
0.0466126977
0.0469404059
0.0472677648
0.0475947389
0.0479212924
0.0482473893
0.0485729932
0.0488980677
0.0492225758
0.0495464802
0.0498697437
0.0501923285
0.0505141966
0.0508353098
0.0511556296
0.0514751174
0.051793734
0.0521114404
0.052428197
0.0527439641
0.0530587019
0.0533723701
0.0536849283
0.0539963361
0.0543065525
0.0546155365
0.054923247
0.0552296425
0.0555346814
0.055838322
0.0561405221
0.0564412397
0.0567404325
0.0570380579
0.0573340733
0.0576284359
0.0579211027
0.0582120307
0.0585011765
0.0587884968
0.0590739481
0.0593574868
0.0596390692
0.0599186514
0.0601961895
0.0604716394
0.0607449571
0.0610160982
0.0612850187
0.061551674
0.0618160198
0.0620780117
0.0623376051
0.0625947555
0.0628494182
0.0631015488
0.0633511025
0.0635980348
0.0638423009
0.0640838563
0.0643226563
0.0645586563
0.0647918118
0.0650220781
0.0652494107
0.0654737652
0.0656950972
0.0659133624
0.0661285164
0.066340515
0.0665493143
0.0667548701
0.0669571386
0.0671560759
0.0673516384
0.0675437826
0.0677324651
0.0679176425
0.0680992719
0.0682773102
0.0684517146
0.0686224427
0.068789452
0.0689527002
0.0691121455
0.0692677459
0.06941946
0.0695672464
0.069711064
0.0698508719
0.0699866297
0.0701182969
0.0702458336
0.0703691999
0.0704883565
0.0706032641
0.0707138839
0.0708201774
0.0709221064
0.071019633
0.0711127198
0.0712013295
0.0712854254
0.071364971
0.0714399304
0.0715102679
0.0715759483
0.0716369368
0.0716931989
0.0717447007
0.0717914087
0.0718332897
0.0718703113
0.0719024411
0.0719296477
0.0719518996
0.0719691663
0.0719814176
0.0719886237
0.0719907555
0.0719877845
0.0719796824
0.0719664218
0.0719479756
0.0719243175
0.0718954216
0.0718612627
0.0718218161
0.0717770577
0.0717269641
0.0716715125
0.0716106807
0.0715444471
0.0714727908
0.0713956915
0.0713131297
0.0712250865
0.0711315436
0.0710324835
0.0709278893
0.0708177449
0.0707020349
0.0705807445
0.0704538599
0.0703213677
0.0701832556
0.0700395117
0.0698901252
0.0697350859
0.0695743843
0.0694080119
0.0692359609
0.0690582242
0.0688747956
0.0686856699
0.0684908424
0.0682903094
0.0680840681
0.0678721165
0.0676544534
0.0674310784
0.0672019923
0.0669671965
0.0667266932
0.0664804858
0.0662285784
0.065970976
0.0657076846
0.0654387111
0.0651640633
0.0648837499
0.0645977806
0.064306166
0.0640089177
0.0637060483
0.0633975712
0.0630835008
0.0627638528
0.0624386433
0.06210789
0.0617716111
0.061429826
0.0610825552
0.06072982
0.0603716429
0.0600080472
0.0596390575
0.0592646991
0.0588849987
0.0584999837
0.0581096827
0.0577141253
0.0573133422
0.0569073652
0.0564962268
0.0560799611
0.0556586028
0.055232188
0.0548007536
0.0543643377
0.0539229795
0.0534767192
0.0530255981
0.0525696586
0.0521089442
0.0516434994
0.05117337
0.0506986025
0.050219245
0.0497353462
0.0492469562
0.0487541261
0.0482569082
0.0477553556
0.0472495229
0.0467394656
0.0462252401
0.0457069044
0.045184517
0.0446581381
0.0441278284
0.0435936503
0.0430556669
0.0425139424
0.0419685423
0.0414195332
0.0408669826
0.0403109592
0.0397515328
0.0391887743
0.0386227558
0.0380535501
0.0374812317
0.0369058756
0.0363275582
0.0357463569
0.0351623503
0.0345756179
0.0339862403
0.0333942993
0.0327998776
0.0322030591
0.0316039288
0.0310025725
0.0303990772
0.0297935312
0.0291860234
0.028576644
0.0279654843
0.0273526364
0.0267381935
0.02612225
0.0255049011
0.0248862431
0.0242663734
0.0236453901
0.0230233927
0.0224004813
0.0217767573
0.0211523228
0.0205272811
0.0199017364
0.0192757937
0.018649559
0.0180231395
0.0173966431
0.0167701785
0.0161438557
0.0155177852
0.0148920786
0.0142668485
0.0136422083
0.013018272
0.0123951549
0.0117729729
0.0111518429
0.0105318824
0.00991321006
0.00929594507
0.00868020759
0.00806611853
0.00745379961
0.00684337332
0.00623496292
0.00562869244
0.00502468666
0.00442307108
0.00382397194
0.00322751621
0.00263383155
0.00204304632
0.00145528955
0.000870690951
0.000289380902
0.000288509585
0.000862848858
0.00143350464
0.00200034406
0.00256323363
0.00312203928
0.00367662637
0.00422685972
0.00477260359
0.00531372169
0.00585007724
0.00638153294
0.00690795101
0.00742919318
0.00794512072
0.00845559446
0.00896047479
0.00945962166
0.00995289465
0.0104401529
0.0109212553
0.0113960601
0.0118644256
0.0123262094
0.012781269
0.0132294615
0.0136706438
0.0141046724
0.0145314037
0.0149506938
0.0153623985
0.0157663734
0.0161624742
0.016550556
0.016930474
0.0173020832
0.0176652384
0.0180197944
0.018365606
0.0187025276
0.0190304139
0.0193491192
0.0196584982
0.0199584052
0.0202486948
0.0205292214
0.0207998396
0.021060404
0.0213107693
0.0215507904
0.021780322
0.0219992193
0.0222073374
0.0224045317
0.0225906578
0.0227655714
0.0229291285
0.0230811852
0.0232215982
0.0233502241
0.02346692
0.0235715432
0.0236639515
0.023744003
0.0238115559
0.0238664692
0.023908602
0.023937814
0.0239539653
0.0239569164
0.0239465283
0.0239226626
0.0238851813
0.023833947
0.0237688228
0.0236896724
0.0235963602
0.023488751
0.0233667104
0.0232301046
0.0230788005
0.0229126655
0.022731568
0.022535377
0.022323962
0.0220971937
0.0218549433
0.0215970829
0.0213234853
0.0210340242
0.0207285743
0.0204070109
0.0200692104
0.0197150501
0.019344408
0.0189571635
0.0185531964
0.0181323879
0.0176946202
0.0172397762
0.0167677401
0.0162783971
0.0157716335
0.0152473366
0.0147053949
0.014145698
0.0135681367
0.0129726028
0.0123589895
0.0117271911
0.0110771031
0.0104086223
0.00972164654
0.00901607525
0.00829180894
0.00754874951
0.00678680013
0.00600586534
0.00520585102
0.00438666445
0.00354821426
0.00269041052
0.00181316471
0.000916389742
1.35396952e-17
0.000936088672
0.00189195894
0.00286769196
0.00386336738
0.00487906331
0.00591485629
0.00697082132
0.0080470318
0.00914355954
0.0102604747
0.011397846
0.0125557402
0.0137342226
0.0149333569
0.0161532049
0.0173938268
0.0186552813
0.019937625
0.0212409129
0.0225651984
0.023910533
0.0252769663
0.0266645464
0.0280733193
0.0295033294
0.0309546191
0.0324272291
0.033921198
0.0354365629
0.0369733587
0.0385316186
0.0401113737
0.0417126534
0.043335485
0.044979894
0.0466459039
0.0483335361
0.0500428102
0.0517737438
0.0535263525
0.0553006498
0.0570966474
0.0589143547
0.0607537793
0.0626149266
0.0644978001
0.0664024012
0.0683287291
0.0702767812
0.0722465525
0.0742380361
0.0762512231
0.0782861022
0.0803426603
0.082420882
0.0845207497
0.086642244
0.088785343
0.0909500228
0.0931362575
0.0953440188
0.0975732763
0.0998239976
0.102096148
0.104389691
0.106704586
0.109040794
0.111398271
0.11377697
0.116176844
0.118597844
0.121039917
0.123503008
0.125987062
0.128492018
0.131017817
0.133564395
0.136131687
0.138719625
0.141328138
0.143957156
0.146606604
0.149276405
0.151966481
0.154676751
0.157407131
0.160157536
0.162927879
0.16571807
0.168528017
0.171357626
0.1742068
0.177075441
0.179963448
0.182870717
0.185797145
0.188742624
0.191707043
0.194690291
0.197692255
0.200712818
0.203751862
0.206809266
0.209884908
0.212978664
0.216090406
0.219220005
0.22236733
0.225532249
0.228714624
0.23191432
0.235131196
0.23836511
0.241615919
0.244883477
0.248167636
0.251468246
0.254785154
0.258118207
0.261467249
0.26483212
0.268212661
0.27160871
0.275020102
0.278446672
0.28188825
0.285344667
0.28881575
0.292301326
0.295801218
0.299315248
0.302843238
0.306385004
0.309940363
0.31350913
0.317091117
0.320686136
0.324293994
0.3279145
0.331547459
0.335192674
0.338849946
0.342519077
0.346199864
0.349892104
0.353595592
0.35731012
0.361035481
0.364771465
0.368517859
0.37227445
0.376041022
0.37981736
0.383603246
0.387398458
0.391202777
0.395015978
0.398837839
0.402668132
0.406506631
0.410353107
0.41420733
0.418069068
0.421938088
0.425814156
0.429697036
0.433586491
0.437482282
0.441384171
0.445291916
0.449205275
0.453124005
0.457047861
0.460976597
0.464909967
0.468847722
0.472789613
0.47673539
0.480684801
0.484637594
0.488593516
0.492552313
0.496513727
0.500477505
0.504443387
0.508411116
0.512380432
0.516351076
0.520322787
0.524295302
0.528268361
0.532241698
0.536215051
0.540188154
0.544160742
0.54813255
0.552103309
0.556072754
0.560040616
0.564006625
0.567970515
0.571932014
0.575890852
0.579846759
0.583799465
0.587748696
0.591694183
0.595635652
0.59957283
0.603505445
0.607433225
0.611355894
0.61527318
0.619184808
0.623090506
0.626989997
0.630883008
0.634769265
0.638648493
0.642520417
0.646384762
0.650241254
0.654089619
0.657929581
0.661760867
0.665583201
0.66939631
0.673199919
0.676993755
0.680777544
0.684551012
0.688313886
0.692065894
0.695806762
0.699536219
0.703253992
0.706959811
0.710653404
0.714334501
0.718002832
0.721658126
0.725300116
0.728928532
0.732543107
0.736143574
0.739729666
0.743301116
0.746857661
0.750399035
0.753924975
0.757435218
0.760929501
0.764407563
0.767869145
0.771313985
0.774741827
0.778152411
0.781545482
0.784920783
0.78827806
0.791617059
0.794937528
0.798239214
0.801521868
0.804785241
0.808029084
0.81125315
0.814457195
0.817640972
0.82080424
0.823946757
0.827068281
0.830168574
0.833247398
0.836304517
0.839339696
0.842352701
0.845343301
0.848311264
0.851256361
0.854178366
0.857077052
0.859952196
0.862803573
0.865630964
0.868434149
0.871212909
0.87396703
0.876696297
0.879400497
0.88207942
0.884732857
0.8873606
0.889962444
0.892538185
0.895087623
0.897610558
0.900106791
0.902576127
0.905018373
0.907433335
0.909820825
0.912180655
0.914512639
0.916816593
0.919092335
0.921339687
0.92355847
0.92574851
0.927909633
0.930041669
0.932144448
0.934217804
0.936261574
0.938275594
0.940259705
0.942213751
0.944137574
0.946031024
0.947893948
0.9497262
0.951527633
0.953298103
0.95503747
0.956745595
0.958422342
0.960067577
0.961681169
0.963262989
0.96481291
0.966330809
0.967816564
0.969270057
0.970691171
0.972079793
0.97343581
0.974759115
0.976049602
0.977307167
0.978531708
0.979723129
0.980881333
0.982006227
0.983097721
0.984155728
0.985180162
0.98617094
0.987127984
0.988051216
0.988940562
0.98979595
0.990617312
0.991404581
0.992157694
0.99287659
0.993561212
0.994211503
0.994827412
0.99540889
0.995955888
0.996468363
0.996946274
0.997389582
0.997798251
0.998172248
0.998511543
0.998816108
0.99908592
0.999320955
0.999521195
0.999686624
0.999817228
0.999912997
0.999973923
1
0.999991227
0.999947604
0.999869135
0.999755826
0.999607686
0.999424726
0.999206962
0.99895441
0.998667092
0.99834503
0.99798825
0.997596781
0.997170654
0.996709903
0.996214565
0.995684681
0.995120292
0.994521445
0.993888186
0.993220568
0.992518644
0.991782469
0.991012104
0.99020761
0.989369052
0.988496497
0.987590014
0.986649678
0.985675563
0.984667748
0.983626312
0.982551341
0.98144292
0.980301137
0.979126085
0.977917858
0.976676552
0.975402266
0.974095103
0.972755168
0.971382567
0.96997741
0.96853981
0.967069881
0.965567741
0.96403351
0.96246731
0.960869267
0.959239507
0.957578161
0.955885361
0.954161242
0.952405941
0.950619598
0.948802355
0.946954356
0.945075749
0.943166682
0.941227307
0.939257778
0.937258251
0.935228885
0.933169841
0.93108128
0.92896337
0.926816276
0.92464017
0.922435222
0.920201607
0.917939501
0.915649082
0.913330531
0.910984031
0.908609765
0.906207921
0.903778688
0.901322256
0.898838817
0.896328567
0.893791702
0.891228421
0.888638925
0.886023415
0.883382097
0.880715175
0.878022859
0.875305358
0.872562883
0.869795648
0.867003868
0.86418776
0.861347542
0.858483435
0.855595659
0.85268444
0.849750001
0.846792569
0.843812373
0.840809642
0.837784608
0.834737503
0.831668561
0.828578018
0.825466111
0.822333079
0.819179161
0.816004598
0.812809633
0.80959451
0.806359473
0.803104769
0.799830645
0.79653735
0.793225133
0.789894247
0.786544941
0.783177471
0.77979209
0.776389053
0.772968616
0.769531037
0.766076574
0.762605485
0.759118032
0.755614475
0.752095075
0.748560095
0.745009799
0.74144445
0.737864314
0.734269656
0.730660743
0.727037841
0.723401217
0.719751141
0.716087881
0.712411705
0.708722885
0.70502169
0.701308392
0.69758326
0.693846568
0.690098588
0.686339591
0.68256985
0.67878964
