# Pulseq sequence file
# Created by MATLAB mr toolbox

[VERSION]
major 1
minor 5
revision 1

[DEFINITIONS]
AdcRasterTime 1e-07 
BlockDurationRaster 1e-05 
FOV 0.256 0.256 0.003 
GradientRasterTime 1e-05 
Name epise 
RadiofrequencyRasterTime 1e-06 
TotalDuration 0.51525 

# Format of blocks:
# NUM DUR RF  GX  GY  GZ  ADC  EXT
[BLOCKS]
  1 319   1   0   0   1  0  0
  2  80   0   0   0   2  0  0
  3 3486   0   0   0   0  0  0
  4 240   0   0   0   3  0  0
  5  62   2   0   0   0  0  0
  6 240   0   0   0   3  0  0
  7 1162   0   0   0   0  0  0
  8  80   0   4   0   0  0  0
  9  62   0   5   0   0  1  0
 10  62   0   6   0   0  1  0
 11  80   0   7   0   0  0  0
 12  80   0   4   8   0  0  0
 13  62   0   5   0   0  1  0
 14   6   0   0   9   0  0  0
 15  62   0   6   0   0  1  0
 16   6   0   0   9   0  0  0
 17  62   0   5   0   0  1  0
 18   6   0   0   9   0  0  0
 19  62   0   6   0   0  1  0
 20   6   0   0   9   0  0  0
 21  62   0   5   0   0  1  0
 22   6   0   0   9   0  0  0
 23  62   0   6   0   0  1  0
 24   6   0   0   9   0  0  0
 25  62   0   5   0   0  1  0
 26   6   0   0   9   0  0  0
 27  62   0   6   0   0  1  0
 28   6   0   0   9   0  0  0
 29  62   0   5   0   0  1  0
 30   6   0   0   9   0  0  0
 31  62   0   6   0   0  1  0
 32   6   0   0   9   0  0  0
 33  62   0   5   0   0  1  0
 34   6   0   0   9   0  0  0
 35  62   0   6   0   0  1  0
 36   6   0   0   9   0  0  0
 37  62   0   5   0   0  1  0
 38   6   0   0   9   0  0  0
 39  62   0   6   0   0  1  0
 40   6   0   0   9   0  0  0
 41  62   0   5   0   0  1  0
 42   6   0   0   9   0  0  0
 43  62   0   6   0   0  1  0
 44   6   0   0   9   0  0  0
 45  62   0   5   0   0  1  0
 46   6   0   0   9   0  0  0
 47  62   0   6   0   0  1  0
 48   6   0   0   9   0  0  0
 49  62   0   5   0   0  1  0
 50   6   0   0   9   0  0  0
 51  62   0   6   0   0  1  0
 52   6   0   0   9   0  0  0
 53  62   0   5   0   0  1  0
 54   6   0   0   9   0  0  0
 55  62   0   6   0   0  1  0
 56   6   0   0   9   0  0  0
 57  62   0   5   0   0  1  0
 58   6   0   0   9   0  0  0
 59  62   0   6   0   0  1  0
 60   6   0   0   9   0  0  0
 61  62   0   5   0   0  1  0
 62   6   0   0   9   0  0  0
 63  62   0   6   0   0  1  0
 64   6   0   0   9   0  0  0
 65  62   0   5   0   0  1  0
 66   6   0   0   9   0  0  0
 67  62   0   6   0   0  1  0
 68   6   0   0   9   0  0  0
 69  62   0   5   0   0  1  0
 70   6   0   0   9   0  0  0
 71  62   0   6   0   0  1  0
 72   6   0   0   9   0  0  0
 73  62   0   5   0   0  1  0
 74   6   0   0   9   0  0  0
 75  62   0   6   0   0  1  0
 76   6   0   0   9   0  0  0
 77  62   0   5   0   0  1  0
 78   6   0   0   9   0  0  0
 79  62   0   6   0   0  1  0
 80   6   0   0   9   0  0  0
 81  62   0   5   0   0  1  0
 82   6   0   0   9   0  0  0
 83  62   0   6   0   0  1  0
 84   6   0   0   9   0  0  0
 85  62   0   5   0   0  1  0
 86   6   0   0   9   0  0  0
 87  62   0   6   0   0  1  0
 88   6   0   0   9   0  0  0
 89  62   0   5   0   0  1  0
 90   6   0   0   9   0  0  0
 91  62   0   6   0   0  1  0
 92   6   0   0   9   0  0  0
 93  62   0   5   0   0  1  0
 94   6   0   0   9   0  0  0
 95  62   0   6   0   0  1  0
 96   6   0   0   9   0  0  0
 97  62   0   5   0   0  1  0
 98   6   0   0   9   0  0  0
 99  62   0   6   0   0  1  0
100   6   0   0   9   0  0  0
101  62   0   5   0   0  1  0
102   6   0   0   9   0  0  0
103  62   0   6   0   0  1  0
104   6   0   0   9   0  0  0
105  62   0   5   0   0  1  0
106   6   0   0   9   0  0  0
107  62   0   6   0   0  1  0
108   6   0   0   9   0  0  0
109  62   0   5   0   0  1  0
110   6   0   0   9   0  0  0
111  62   0   6   0   0  1  0
112   6   0   0   9   0  0  0
113  62   0   5   0   0  1  0
114   6   0   0   9   0  0  0
115  62   0   6   0   0  1  0
116   6   0   0   9   0  0  0
117  62   0   5   0   0  1  0
118   6   0   0   9   0  0  0
119  62   0   6   0   0  1  0
120   6   0   0   9   0  0  0
121  62   0   5   0   0  1  0
122   6   0   0   9   0  0  0
123  62   0   6   0   0  1  0
124   6   0   0   9   0  0  0
125  62   0   5   0   0  1  0
126   6   0   0   9   0  0  0
127  62   0   6   0   0  1  0
128   6   0   0   9   0  0  0
129  62   0   5   0   0  1  0
130   6   0   0   9   0  0  0
131  62   0   6   0   0  1  0
132   6   0   0   9   0  0  0
133  62   0   5   0   0  1  0
134   6   0   0   9   0  0  0
135  62   0   6   0   0  1  0
136   6   0   0   9   0  0  0
137  62   0   5   0   0  1  0
138   6   0   0   9   0  0  0
139  62   0   6   0   0  1  0
140   6   0   0   9   0  0  0
141 319   3   0   0   1  0  0
142  80   0   0   0   2  0  0
143 3486   0   0   0   0  0  0
144 240   0   0   0   3  0  0
145  62   2   0   0   0  0  0
146 240   0   0   0   3  0  0
147 1162   0   0   0   0  0  0
148  80   0   4   0   0  0  0
149  62   0   5   0   0  1  0
150  62   0   6   0   0  1  0
151  80   0   7   0   0  0  0
152  80   0   4   8   0  0  0
153  62   0   5   0   0  1  0
154   6   0   0   9   0  0  0
155  62   0   6   0   0  1  0
156   6   0   0   9   0  0  0
157  62   0   5   0   0  1  0
158   6   0   0   9   0  0  0
159  62   0   6   0   0  1  0
160   6   0   0   9   0  0  0
161  62   0   5   0   0  1  0
162   6   0   0   9   0  0  0
163  62   0   6   0   0  1  0
164   6   0   0   9   0  0  0
165  62   0   5   0   0  1  0
166   6   0   0   9   0  0  0
167  62   0   6   0   0  1  0
168   6   0   0   9   0  0  0
169  62   0   5   0   0  1  0
170   6   0   0   9   0  0  0
171  62   0   6   0   0  1  0
172   6   0   0   9   0  0  0
173  62   0   5   0   0  1  0
174   6   0   0   9   0  0  0
175  62   0   6   0   0  1  0
176   6   0   0   9   0  0  0
177  62   0   5   0   0  1  0
178   6   0   0   9   0  0  0
179  62   0   6   0   0  1  0
180   6   0   0   9   0  0  0
181  62   0   5   0   0  1  0
182   6   0   0   9   0  0  0
183  62   0   6   0   0  1  0
184   6   0   0   9   0  0  0
185  62   0   5   0   0  1  0
186   6   0   0   9   0  0  0
187  62   0   6   0   0  1  0
188   6   0   0   9   0  0  0
189  62   0   5   0   0  1  0
190   6   0   0   9   0  0  0
191  62   0   6   0   0  1  0
192   6   0   0   9   0  0  0
193  62   0   5   0   0  1  0
194   6   0   0   9   0  0  0
195  62   0   6   0   0  1  0
196   6   0   0   9   0  0  0
197  62   0   5   0   0  1  0
198   6   0   0   9   0  0  0
199  62   0   6   0   0  1  0
200   6   0   0   9   0  0  0
201  62   0   5   0   0  1  0
202   6   0   0   9   0  0  0
203  62   0   6   0   0  1  0
204   6   0   0   9   0  0  0
205  62   0   5   0   0  1  0
206   6   0   0   9   0  0  0
207  62   0   6   0   0  1  0
208   6   0   0   9   0  0  0
209  62   0   5   0   0  1  0
210   6   0   0   9   0  0  0
211  62   0   6   0   0  1  0
212   6   0   0   9   0  0  0
213  62   0   5   0   0  1  0
214   6   0   0   9   0  0  0
215  62   0   6   0   0  1  0
216   6   0   0   9   0  0  0
217  62   0   5   0   0  1  0
218   6   0   0   9   0  0  0
219  62   0   6   0   0  1  0
220   6   0   0   9   0  0  0
221  62   0   5   0   0  1  0
222   6   0   0   9   0  0  0
223  62   0   6   0   0  1  0
224   6   0   0   9   0  0  0
225  62   0   5   0   0  1  0
226   6   0   0   9   0  0  0
227  62   0   6   0   0  1  0
228   6   0   0   9   0  0  0
229  62   0   5   0   0  1  0
230   6   0   0   9   0  0  0
231  62   0   6   0   0  1  0
232   6   0   0   9   0  0  0
233  62   0   5   0   0  1  0
234   6   0   0   9   0  0  0
235  62   0   6   0   0  1  0
236   6   0   0   9   0  0  0
237  62   0   5   0   0  1  0
238   6   0   0   9   0  0  0
239  62   0   6   0   0  1  0
240   6   0   0   9   0  0  0
241  62   0   5   0   0  1  0
242   6   0   0   9   0  0  0
243  62   0   6   0   0  1  0
244   6   0   0   9   0  0  0
245  62   0   5   0   0  1  0
246   6   0   0   9   0  0  0
247  62   0   6   0   0  1  0
248   6   0   0   9   0  0  0
249  62   0   5   0   0  1  0
250   6   0   0   9   0  0  0
251  62   0   6   0   0  1  0
252   6   0   0   9   0  0  0
253  62   0   5   0   0  1  0
254   6   0   0   9   0  0  0
255  62   0   6   0   0  1  0
256   6   0   0   9   0  0  0
257  62   0   5   0   0  1  0
258   6   0   0   9   0  0  0
259  62   0   6   0   0  1  0
260   6   0   0   9   0  0  0
261  62   0   5   0   0  1  0
262   6   0   0   9   0  0  0
263  62   0   6   0   0  1  0
264   6   0   0   9   0  0  0
265  62   0   5   0   0  1  0
266   6   0   0   9   0  0  0
267  62   0   6   0   0  1  0
268   6   0   0   9   0  0  0
269  62   0   5   0   0  1  0
270   6   0   0   9   0  0  0
271  62   0   6   0   0  1  0
272   6   0   0   9   0  0  0
273  62   0   5   0   0  1  0
274   6   0   0   9   0  0  0
275  62   0   6   0   0  1  0
276   6   0   0   9   0  0  0
277  62   0   5   0   0  1  0
278   6   0   0   9   0  0  0
279  62   0   6   0   0  1  0
280   6   0   0   9   0  0  0
281 319   4   0   0   1  0  0
282  80   0   0   0   2  0  0
283 3486   0   0   0   0  0  0
284 240   0   0   0   3  0  0
285  62   2   0   0   0  0  0
286 240   0   0   0   3  0  0
287 1162   0   0   0   0  0  0
288  80   0   4   0   0  0  0
289  62   0   5   0   0  1  0
290  62   0   6   0   0  1  0
291  80   0   7   0   0  0  0
292  80   0   4   8   0  0  0
293  62   0   5   0   0  1  0
294   6   0   0   9   0  0  0
295  62   0   6   0   0  1  0
296   6   0   0   9   0  0  0
297  62   0   5   0   0  1  0
298   6   0   0   9   0  0  0
299  62   0   6   0   0  1  0
300   6   0   0   9   0  0  0
301  62   0   5   0   0  1  0
302   6   0   0   9   0  0  0
303  62   0   6   0   0  1  0
304   6   0   0   9   0  0  0
305  62   0   5   0   0  1  0
306   6   0   0   9   0  0  0
307  62   0   6   0   0  1  0
308   6   0   0   9   0  0  0
309  62   0   5   0   0  1  0
310   6   0   0   9   0  0  0
311  62   0   6   0   0  1  0
312   6   0   0   9   0  0  0
313  62   0   5   0   0  1  0
314   6   0   0   9   0  0  0
315  62   0   6   0   0  1  0
316   6   0   0   9   0  0  0
317  62   0   5   0   0  1  0
318   6   0   0   9   0  0  0
319  62   0   6   0   0  1  0
320   6   0   0   9   0  0  0
321  62   0   5   0   0  1  0
[RF]
1      658.303 1 2 0 1500 100 0 0 -2666.67 0 e
2         1000 3 4 5 250 100 0 0 0 0 r
3      658.303 1 2 0 1500 100 0 0 -1333.33 0 e
4      658.303 1 2 0 1500 100 0 0 0 0 e
5      658.303 1 2 0 1500 100 0 0 1333.33 0 e
6      658.303 1 2 0 1500 100 0 0 2666.67 0 e

# Format of trapezoid gradients:
# id amplitude rise flat fall delay
# ..      Hz/m   us   us   us    us
[TRAP]
 1       444444  90 3000  90  10
 2 -1.18391e+06 220  360 220   0
 3  1.26575e+06 230 1940 230   0
 4      -242188  50  700  50   0
 5       781250 150  320 150   0
 6      -781250 150  320 150   0
 7       242188  50  700  50   0
 8      -162338  30  740  30   0
 9      97656.2  20   20  20   0

# Format of ADC events:
# id num dwell delay freqPPM phasePPM freq phase phase_id
# ..  ..    ns    us     ppm  rad/MHz   Hz   rad       ..
[ADC]
1 64 5000 150 0 0 0 0 0

# Sequence Shapes
[SHAPES]

shape_id 1
num_samples 3000
9.13956656e-11
2.46768869e-09
1.14194217e-08
3.1307023e-08
6.64498818e-08
1.21106788e-07
1.99456416e-07
3.05577886e-07
4.43431424e-07
6.16839177e-07
8.29466184e-07
1.08480156e-06
1.38613991e-06
1.73656303e-06
2.13892185e-06
2.59581879e-06
3.10959041e-06
3.68229047e-06
4.31567342e-06
5.01117834e-06
5.76991333e-06
6.59264044e-06
7.47976114e-06
8.43130234e-06
9.44690294e-06
1.05258012e-05
1.16668223e-05
1.28683674e-05
1.41284022e-05
1.54444476e-05
1.68135697e-05
1.82323718e-05
1.9696986e-05
2.1203067e-05
2.27457853e-05
2.43198221e-05
2.59193648e-05
2.75381035e-05
2.91692281e-05
3.08054266e-05
3.24388842e-05
3.40612833e-05
3.56638045e-05
3.72371284e-05
3.87714385e-05
4.0256425e-05
4.16812897e-05
4.30347517e-05
4.43050541e-05
4.54799718e-05
4.65468199e-05
4.74924641e-05
4.83033304e-05
4.89654175e-05
4.94643092e-05
4.97851879e-05
4.99128491e-05
4.98317172e-05
4.95258616e-05
4.89790146e-05
4.81745891e-05
4.70956984e-05
4.57251759e-05
4.40455968e-05
4.20392991e-05
3.96884072e-05
3.6974855e-05
3.38804106e-05
3.03867014e-05
2.647524e-05
2.21274514e-05
1.73246997e-05
1.20483172e-05
6.27963233e-06
1.91436911e-19
6.80916884e-06
1.41663763e-05
2.20900061e-05
3.05982922e-05
3.9709286e-05
4.94408241e-05
5.98104944e-05
7.08356033e-05
8.25331413e-05
9.49197487e-05
0.000108011681
0.000121824776
0.000136374415
0.000151675489
0.000167742369
0.00018458886
0.000202228176
0.000220672897
0.000239934939
0.000260025514
0.000280955101
0.000302733404
0.000325369323
0.000348870915
0.000373245365
0.000398498946
0.000424636991
0.000451663857
0.000479582896
0.000508396416
0.000538105658
0.000568710761
0.000600210729
0.00063260341
0.000665885459
0.000700052315
0.000735098174
0.000771015959
0.0008077973
0.000845432507
0.000883910547
0.000923219023
0.000963344152
0.00100427075
0.0010459822
0.00108846044
0.00113168598
0.00117563783
0.00122029352
0.00126562908
0.00131161904
0.0013582364
0.00140545265
0.00145323774
0.00150156009
0.00155038655
0.00159968247
0.00164941164
0.0016995363
0.00175001716
0.00180081342
0.00185188272
0.0019031812
0.00195466349
0.00200628274
0.00205799059
0.00210973723
0.00216147142
0.00221314045
0.00226469024
0.00231606529
0.00236720876
0.00241806248
0.00246856695
0.00251866141
0.00256828385
0.00261737105
0.00266585861
0.00271368098
0.00276077154
0.00280706259
0.00285248541
0.00289697032
0.0029404467
0.00298284307
0.00302408711
0.00306410572
0.00310282508
0.0031401707
0.00317606748
0.00321043976
0.00324321138
0.00327430575
0.0033036459
0.00333115455
0.00335675419
0.00338036711
0.0034019155
0.00342132151
0.00343850731
0.00345339518
0.00346590757
0.00347596716
0.00348349698
0.00348842044
0.00349066141
0.00349014434
0.00348679428
0.00348053701
0.00347129907
0.0034590079
0.00344359187
0.00342498038
0.00340310393
0.00337789425
0.0033492843
0.00331720842
0.0032816024
0.00324240353
0.00319955073
0.00315298459
0.00310264749
0.00304848364
0.0029904392
0.00292846236
0.00286250337
0.00279251471
0.00271845107
0.00264026952
0.00255792952
0.00247139303
0.0023806246
0.0022855914
0.00218626335
0.00208261314
0.00197461636
0.00186225151
0.00174550011
0.00162434677
0.00149877923
0.00136878844
0.00123436863
0.00109551736
0.0009522356
0.000804527747
0.000652401721
0.000495869004
0.000334944688
0.000169647531
6.03293254e-18
0.000173971682
0.000352237496
0.000534763582
0.000721512208
0.000912441732
0.00110750657
0.00130665716
0.00150983996
0.00171699738
0.00192806782
0.00214298558
0.00236168093
0.00258408001
0.00281010489
0.00303967353
0.0032726998
0.00350909345
0.00374876012
0.0039916014
0.00423751475
0.00448639361
0.00473812733
0.00499260127
0.00524969674
0.00550929112
0.00577125781
0.00603546633
0.00630178231
0.00657006755
0.00684018007
0.00711197416
0.00738530043
0.00766000583
0.0079359338
0.00821292422
0.00849081357
0.00876943496
0.00904861819
0.00932818985
0.0096079734
0.00988778924
0.0101674548
0.0104467847
0.0107255907
0.011003682
0.0112808649
0.0115569437
0.01183172
0.0121049931
0.0123765605
0.0126462174
0.012913757
0.0131789711
0.0134416494
0.0137015803
0.0139585509
0.0142123468
0.0144627526
0.0147095518
0.0149525272
0.0151914608
0.0154261341
0.015656328
0.0158818234
0.0161024009
0.0163178413
0.0165279253
0.0167324343
0.01693115
0.0171238548
0.017310332
0.0174903659
0.0176637419
0.0178302468
0.0179896688
0.0181417977
0.0182864254
0.0184233456
0.0185523541
0.0186732493
0.0187858318
0.018889905
0.0189852753
0.0190717518
0.0191491471
0.0192172769
0.0192759605
0.0193250211
0.0193642854
0.0193935843
0.0194127528
0.0194216305
0.0194200612
0.0194078936
0.019384981
0.0193511819
0.0193063598
0.0192503836
0.0191831277
0.0191044718
0.0190143018
0.018912509
0.0187989911
0.0186736519
0.0185364013
0.0183871559
0.0182258387
0.0180523795
0.0178667148
0.0176687882
0.0174585502
0.0172359587
0.0170009784
0.016753582
0.0164937492
0.0162214675
0.0159367319
0.0156395454
0.0153299187
0.0150078703
0.014673427
0.0143266232
0.0139675019
0.013596114
0.0132125187
0.0128167834
0.012408984
0.0119892046
0.0115575377
0.0111140844
0.0106589539
0.0101922643
0.00971414176
0.00922472112
0.00872414564
0.00821256704
0.00769014547
0.00715704953
0.00661345618
0.00605955079
0.00549552704
0.00492158688
0.00433794053
0.00374480635
0.00314241086
0.00253098859
0.00191078206
0.00128204169
0.000645025688
2.65808142e-17
0.000652761831
0.00131297875
0.00198036229
0.00265461673
0.00333543916
0.00402251966
0.00471554141
0.00541418085
0.00611810779
0.0068269856
0.00754047137
0.00825821602
0.00897986455
0.00970505614
0.0104334244
0.0111645975
0.0118981983
0.0126338448
0.01337115
0.0141097224
0.0148491661
0.0155890807
0.0163290623
0.0170687029
0.017807591
0.0185453119
0.019281448
0.0200155785
0.0207472804
0.0214761281
0.0222016941
0.0229235492
0.0236412623
0.0243544013
0.0250625331
0.0257652236
0.0264620384
0.0271525429
0.0278363025
0.028512883
0.0291818506
0.0298427729
0.0304952181
0.0311387563
0.0317729591
0.0323974004
0.0330116562
0.0336153051
0.0342079289
0.0347891123
0.0353584436
0.0359155148
0.0364599221
0.0369912659
0.0375091513
0.0380131883
0.0385029922
0.0389781836
0.0394383889
0.0398832407
0.0403123779
0.0407254458
0.0411220967
0.04150199
0.0418647926
0.042210179
0.0425378316
0.042847441
0.0431387063
0.0434113353
0.0436650446
0.04389956
0.0441146168
0.0443099601
0.0444853444
0.0446405347
0.0447753063
0.0448894447
0.0449827465
0.0450550189
0.0451060805
0.045135761
0.0451439018
0.0451303557
0.0450949875
0.045037674
0.0449583042
0.0448567791
0.0447330124
0.0445869304
0.044418472
0.0442275888
0.0440142455
0.0437784197
0.0435201022
0.0432392971
0.0429360214
0.0426103058
0.0422621944
0.0418917445
0.0414990271
0.0410841267
0.0406471414
0.0401881828
0.039707376
0.0392048599
0.0386807869
0.0381353228
0.0375686471
0.0369809527
0.036372446
0.0357433467
0.0350938879
0.0344243158
0.0337348899
0.0330258827
0.0322975796
0.0315502789
0.0307842918
0.0299999417
0.0291975647
0.0283775092
0.0275401357
0.0266858167
0.0258149364
0.0249278907
0.024025087
0.0231069437
0.0221738903
0.0212263672
0.0202648253
0.0192897256
0.0183015394
0.0173007479
0.0162878415
0.0152633203
0.014227693
0.0131814774
0.0121251996
0.0110593937
0.00998460175
0.00890137335
0.00781026521
0.00671184096
0.00560667075
0.00449533093
0.0033784037
0.00225647677
0.00113014299
5.2979072e-17
0.00113335014
0.00226930133
0.00340724379
0.00454656445
0.00568664733
0.00682687393
0.00796662362
0.00910527406
0.0102422015
0.0113767814
0.0125083886
0.0136363977
0.0147601838
0.0158791226
0.0169925909
0.018099967
0.0192006312
0.020293966
0.0213793569
0.0224561923
0.0235238645
0.0245817694
0.0256293078
0.0266658848
0.0276909113
0.0287038034
0.0297039834
0.0306908802
0.0316639294
0.0326225738
0.0335662642
0.0344944589
0.0354066252
0.0363022389
0.0371807851
0.0380417584
0.0388846635
0.0397090152
0.0405143393
0.0413001722
0.0420660621
0.0428115687
0.0435362638
0.0442397315
0.0449215687
0.0455813854
0.0462188047
0.0468334636
0.0474250127
0.0479931172
0.0485374563
0.0490577243
0.0495536302
0.0500248986
0.0504712693
0.0508924977
0.0512883554
0.0516586299
0.0520031251
0.0523216614
0.0526140758
0.0528802222
0.0531199715
0.0533332117
0.053519848
0.0536798029
0.0538130167
0.0539194468
0.0539990687
0.0540518753
0.0540778773
0.0540771035
0.0540496003
0.0539954319
0.0539146807
0.0538074465
0.0536738474
0.0535140191
0.0533281152
0.0531163067
0.0528787826
0.0526157494
0.0523274309
0.0520140684
0.0516759203
0.0513132623
0.0509263869
0.0505156034
0.0500812377
0.0496236322
0.0491431456
0.0486401523
0.0481150429
0.0475682232
0.0470001145
0.0464111532
0.0458017902
0.0451724912
0.0445237359
0.0438560179
0.0431698444
0.0424657358
0.0417442254
0.041005859
0.0402511945
0.0394808018
0.0386952619
0.0378951671
0.0370811202
0.0362537341
0.0354136314
0.0345614444
0.0336978138
0.0328233891
0.0319388277
0.0310447943
0.0301419608
0.0292310057
0.0283126135
0.0273874742
0.0264562829
0.0255197393
0.0245785471
0.0236334136
0.0226850489
0.0217341657
0.0207814785
0.0198277035
0.0188735575
0.0179197575
0.0169670204
0.0160160625
0.0150675983
0.0141223407
0.0131810002
0.0122442841
0.0113128961
0.010387536
0.0094688987
0.00855767392
0.00765454558
0.00676019128
0.00587528168
0.00500048
0.00413644144
0.00328381269
0.00244323133
0.00161532532
0.000800712501
4.17849456e-17
0.000786216234
0.00155735197
0.00231283519
0.00305210662
0.00377462019
0.00447984354
0.0051672585
0.00583636158
0.0064866644
0.00711769416
0.00772899409
0.00832012389
0.00889066014
0.00944019675
0.0099683453
0.0104747355
0.0109590156
0.0114208525
0.0118599326
0.0122759617
0.0126686655
0.01303779
0.0133831015
0.0137043874
0.0140014559
0.0142741369
0.0145222815
0.014745763
0.0149444765
0.0151183394
0.0152672917
0.0153912959
0.0154903371
0.0155644237
0.0156135867
0.0156378806
0.0156373829
0.0156121945
0.0155624396
0.0154882658
0.0153898441
0.0152673689
0.0151210579
0.0149511524
0.0147579166
0.0145416385
0.0143026286
0.0140412208
0.0137577719
0.0134526613
0.0131262911
0.0127790858
0.0124114921
0.0120239787
0.0116170361
0.0111911762
0.0107469321
0.0102848581
0.00980552877
0.00930953931
0.00879750469
0.00827005952
0.00772785763
0.00717157166
0.00660189267
0.00601952967
0.00542520922
0.00481967491
0.00420368694
0.00357802157
0.00294347062
0.00230084097
0.00165095397
0.000994644939
0.000332762517
0.000333831863
0.0010042646
0.00167765056
0.00235309365
0.00302968752
0.00370651622
0.00438265479
0.00505717004
0.00572912117
0.00639756051
0.00706153423
0.00772008303
0.00837224292
0.00901704592
0.00965352086
0.0102806941
0.0108975903
0.0115032332
0.0120966464
0.0126768541
0.0132428822
0.0137937586
0.0143285142
0.014846184
0.0153458075
0.0158264297
0.016287102
0.0167268828
0.0171448385
0.0175400444
0.0179115851
0.0182585559
0.0185800632
0.0188752254
0.0191431738
0.0193830535
0.0195940239
0.01977526
0.0199259525
0.0200453093
0.020132556
0.0201869365
0.020207714
0.020194172
0.0201456143
0.0200613668
0.0199407773
0.0197832167
0.0195880798
0.0193547857
0.0190827789
0.0187715294
0.018420534
0.0180293167
0.0175974292
0.0171244519
0.0166099939
0.0160536945
0.015455223
0.0148142796
0.0141305958
0.0134039354
0.0126340943
0.0118209015
0.0109642196
0.0100639448
0.00912000777
0.00813237408
0.00710104428
0.0060260545
0.00490747675
0.00374541925
0.00254002676
0.0012914808
3.45449977e-17
0.00133415975
0.00271070503
0.00412930473
0.00558958987
0.0070911535
0.00863355054
0.0102162977
0.0118388735
0.0135007182
0.0152012336
0.0169397835
0.0187156932
0.0205282501
0.0223767033
0.0242602644
0.0261781069
0.0281293668
0.0301131428
0.0321284966
0.0341744528
0.0362499999
0.0383540896
0.0404856384
0.0426435267
0.0448266004
0.0470336704
0.0492635135
0.0515148731
0.0537864591
0.0560769491
0.0583849886
0.0607091917
0.0630481416
0.0654003916
0.0677644654
0.0701388581
0.0725220368
0.0749124414
0.0773084853
0.0797085562
0.0821110174
0.0845142079
0.0869164439
0.0893160193
0.091711207
0.0941002597
0.0964814108
0.0988528752
0.101212851
0.10355952
0.105891049
0.10820559
0.110501284
0.112776257
0.115028628
0.117256504
0.119457984
0.121631161
0.123774121
0.125884946
0.127961714
0.1300025
0.13200538
0.133968429
0.135889724
0.137767344
0.139599374
0.141383903
0.143119026
0.144802849
0.146433486
0.14800906
0.149527709
0.150987583
0.152386847
0.153723684
0.154996291
0.156202887
0.157341711
0.158411021
0.159409102
0.16033426
0.161184829
0.161959168
0.162655666
0.163272742
0.163808844
0.164262454
0.164632088
0.164916295
0.165113662
0.165222814
0.165242413
0.165171162
0.165007804
0.164751127
0.164399961
0.163953181
0.163409707
0.162768509
0.162028602
0.161189054
0.160248979
0.159207547
0.158063978
0.156817546
0.155467579
0.154013463
0.152454637
0.1507906
0.149020909
0.147145178
0.145163084
0.143074362
0.140878809
0.138576287
0.136166718
0.133650087
0.131026445
0.128295909
0.125458657
0.122514937
0.119465062
0.116309411
0.11304843
0.109682635
0.106212608
0.102638998
0.0989625255
0.0951839775
0.0913042106
0.0873241501
0.0832447907
0.0790671958
0.0747924984
0.0704219002
0.0659566721
0.061398154
0.0567477544
0.0520069503
0.0471772872
0.0422603783
0.0372579048
0.0321716149
0.0270033239
0.0217549132
0.0164283304
0.0110255883
0.00554876425
3.59327288e-16
0.0056184995
0.0113044666
0.0170555716
0.0228694241
0.028743573
0.0346755082
0.0406626611
0.0467024059
0.0527920603
0.0589288866
0.0651100932
0.0713328353
0.0775942164
0.0838912893
0.0902210577
0.0965804772
0.102966457
0.10937586
0.115805507
0.122252175
0.128712601
0.135183483
0.141661479
0.148143214
0.154625277
0.161104225
0.167576581
0.174038843
0.180487478
0.186918929
0.193329614
0.19971593
0.206074253
0.212400941
0.218692335
0.224944762
0.231154537
0.237317964
0.243431339
0.24949095
0.255493083
0.261434021
0.267310046
0.273117442
0.278852498
0.28451151
0.290090779
0.29558662
0.30099536
0.306313339
0.311536916
0.316662468
0.321686394
0.326605117
0.331415086
0.336112778
0.340694698
0.345157386
0.349497416
0.3537114
0.357795986
0.361747865
0.365563772
0.369240488
0.372774838
0.376163702
0.379404008
0.382492739
0.385426935
0.388203694
0.390820173
0.393273594
0.395561241
0.397680464
0.399628683
0.401403388
0.40300214
0.404422575
0.405662404
0.406719416
0.407591481
0.408276548
0.40877265
0.409077905
0.409190516
0.409108777
0.408831067
0.408355861
0.407681722
0.40680731
0.40573138
0.404452782
0.402970467
0.401283482
0.399390978
0.397292206
0.394986519
0.392473377
0.389752341
0.386823082
0.383685375
0.380339104
0.376784261
0.373020949
0.369049378
0.364869872
0.360482864
0.3558889
0.351088637
0.346082846
0.34087241
0.335458326
0.329841705
0.32402377
0.318005858
0.311789422
0.305376027
0.298767352
0.29196519
0.284971446
0.277788139
0.270417401
0.262861476
0.25512272
0.2472036
0.239106694
0.23083469
0.222390384
0.213776682
0.204996598
0.196053252
0.186949868
0.177689778
0.168276414
0.158713314
0.149004114
0.139152552
0.129162462
0.119037778
0.108782528
0.0984008322
0.0878969063
0.0772750549
0.0665396717
0.0556952377
0.0447463191
0.0336975656
0.0225537081
0.011319557
7.97476855e-16
0.0113999999
0.0228754069
0.0344211143
0.0460319469
0.0577026634
0.0694279587
0.0812024663
0.0930207608
0.104877361
0.116766731
0.128683284
0.140621385
0.152575353
0.164539464
0.176507953
0.18847502
0.200434826
0.212381503
0.224309155
0.236211857
0.248083663
0.259918608
0.271710706
0.283453963
0.295142368
0.306769906
0.318330556
0.329818297
0.341227107
0.35255097
0.363783879
0.374919837
0.385952861
0.396876987
0.407686269
0.418374788
0.42893665
0.439365993
0.449656988
0.459803841
0.469800801
0.479642158
0.48932225
0.498835464
0.508176239
0.517339071
0.526318515
0.535109188
0.543705772
0.552103019
0.56029575
0.568278863
0.576047331
0.583596212
0.590920643
0.598015849
0.604877146
0.61149994
0.617879734
0.624012128
0.629892822
0.635517621
0.640882435
0.645983282
0.650816294
0.655377714
0.659663903
0.663671339
0.667396622
0.670836478
0.673987754
0.676847428
0.679412608
0.681680533
0.683648577
0.685314251
0.686675201
0.687729218
0.68847423
0.688908311
0.689029679
0.6888367
0.688327888
0.687501904
0.686357564
0.684893833
0.683109831
0.681004833
0.678578269
0.675829725
0.672758946
0.669365833
0.66565045
0.661613017
0.657253916
0.65257369
0.647573043
0.642252839
0.636614108
0.630658036
0.624385977
0.617799443
0.61090011
0.603689814
0.596170555
0.588344492
0.580213945
0.571781395
0.563049483
0.554021008
0.544698926
0.535086353
0.525186558
0.515002969
0.504539165
0.493798879
0.482785995
0.47150455
0.459958725
0.448152853
0.436091409
0.423779013
0.411220429
0.398420559
0.385384444
0.37211726
0.358624319
0.344911065
0.330983069
0.316846032
0.302505779
0.287968258
0.273239535
0.258325796
0.243233338
0.227968574
0.212538021
0.196948307
0.18120616
0.165318407
0.149291975
0.133133883
0.116851241
0.100451244
0.0839411749
0.0673283937
0.0506203392
0.033824523
0.0169485272
2.73173899e-15
0.0170133475
0.034083745
0.051203367
0.0683643362
0.0855587275
0.102778572
0.12001586
0.137262547
0.154510554
0.171751777
0.188978084
0.206181325
0.223353333
0.24048593
0.257570927
0.274600134
0.29156536
0.308458418
0.32527113
0.341995329
0.358622866
0.375145612
0.391555464
0.407844346
0.424004219
0.440027077
0.455904958
0.471629946
0.487194172
0.502589824
0.517809146
0.532844445
0.547688093
0.562332533
0.576770281
0.590993932
0.604996162
0.618769734
0.632307499
0.645602403
0.65864749
0.671435901
0.683960887
0.696215805
0.708194123
0.719889427
0.73129542
0.742405929
0.753214906
0.763716435
0.773904728
0.783774138
0.793319155
0.802534409
0.811414678
0.819954889
0.828150117
0.835995595
0.843486708
0.850619005
0.857388194
0.86379015
0.869820912
0.875476693
0.880753873
0.885649008
0.890158832
0.894280254
0.898010365
0.901346438
0.904285929
0.906826479
0.908965918
0.910702263
0.912033722
0.912958692
0.913475767
0.91358373
0.91328156
0.912568435
0.911443724
0.909906997
0.907958021
0.905596761
0.90282338
0.899638242
0.896041909
0.892035143
0.887618905
0.882794355
0.877562855
0.871925962
0.865885435
0.85944323
0.852601498
0.845362592
0.837729056
0.829703632
0.821289256
0.812489055
0.803306351
0.793744654
0.783807665
0.773499271
0.762823546
0.751784749
0.740387319
0.72863588
0.716535231
0.704090349
0.691306386
0.678188665
0.66474268
0.650974093
0.636888728
0.622492575
0.60779178
0.592792649
0.57750164
0.561925362
0.546070572
0.529944173
0.513553208
0.496904859
0.480006443
0.462865407
0.445489329
0.427885909
0.410062968
0.392028445
0.373790392
0.35535697
0.336736446
0.31793719
0.298967666
0.279836436
0.260552147
0.241123536
0.221559416
0.201868682
0.182060297
0.162143295
0.142126772
0.122019885
0.101831845
0.0815719128
0.0612493958
0.0408736424
0.0204540381
3.84615519e-15
0.020479027
0.0409735753
0.061474159
0.0819712789
0.102455427
0.12291709
0.143346758
0.163734924
0.184072091
0.204348777
0.224555521
0.244682884
0.264721457
0.284661864
0.304494767
0.324210871
0.343800929
0.363255746
0.382566182
0.40172316
0.420717668
0.439540765
0.458183583
0.476637334
0.494893316
0.512942911
0.530777596
0.548388942
0.565768624
0.58290842
0.599800218
0.616436017
0.632807936
0.648908213
0.664729213
0.680263429
0.695503487
0.710442148
0.725072315
0.739387034
0.753379497
0.767043049
0.780371188
0.793357568
0.805996004
0.818280477
0.830205131
0.841764282
0.852952418
0.863764202
0.874194475
0.884238259
0.893890759
0.903147366
0.912003657
0.920455402
