# Pulseq sequence file
# Created by MATLAB mr toolbox

[VERSION]
major 1
minor 5
revision 1

[DEFINITIONS]
AdcRasterTime 1e-07 
BlockDurationRaster 1e-05 
FOV 0.22 0.22 0.003 
GradientRasterTime 1e-05 
Name epi 
RadiofrequencyRasterTime 1e-06 
ReadoutOversamplingFactor 2 
ReceiverGainHigh 1 
SliceGap 0.0015 
SlicePositions 0 
SliceThickness 0.003 
TargetGriddedSamples 128 
TotalDuration 3.94342 
TrapezoidGriddingParameters 9e-05 0.00052 9e-05 3.6e-05 0.0006272 

# Format of blocks:
# NUM DUR RF  GX  GY  GZ  ADC  EXT
[BLOCKS]
 1 194016   0   0   0   0  0  0
 2   0   0   0   0   0  0  1
 3 912   1   0   0   1  0  0
 4 226   2   0   0   2  0  2
 5  78   0   3   0   4  0  4
 6   0   0   0   0   0  0  7
 7  70   0   5   0   0  1  0
 8   0   0   0   0   0  0 10
 9  70   0   6   0   0  1  0
10   0   0   0   0   0  0 11
11  70   0   5   0   0  1  0
12  78   0   0   7   0  0 13
13 326   0   0   0   0  0  0
14  70   0   6   8   9  1 16
15  70   0   5  10  11  1 18
16  70   0   6  10  12  1 16
17  70   0   5  10  11  1 18
18  70   0   6  10  12  1 16
19  70   0   5  10  11  1 18
20  70   0   6  10  12  1 16
21  70   0   5  10  11  1 18
22  70   0   6  10  12  1 16
23  70   0   5  10  11  1 18
24  70   0   6  10  12  1 16
25  70   0   5  10  11  1 18
26  70   0   6  10  12  1 16
27  70   0   5  10  11  1 18
28  70   0   6  10  12  1 16
29  70   0   5  10  11  1 18
30  70   0   6  10  12  1 16
31  70   0   5  10  11  1 18
32  70   0   6  10  12  1 16
33  70   0   5  10  11  1 18
34  70   0   6  10  12  1 16
35  70   0   5  10  11  1 18
36  70   0   6  10  12  1 16
37  70   0   5  10  11  1 18
38  70   0   6  10  12  1 16
39  70   0   5  10  11  1 18
40  70   0   6  10  12  1 16
41  70   0   5  10  11  1 18
42  70   0   6  10  12  1 16
43  70   0   5  10  11  1 18
44  70   0   6  10  12  1 16
45  70   0   5  10  11  1 18
46  70   0   6  10  12  1 16
47  70   0   5  10  11  1 18
48  70   0   6  10  12  1 16
49  70   0   5  10  11  1 18
50  70   0   6  10  12  1 16
51  70   0   5  10  11  1 18
52  70   0   6  10  12  1 16
53  70   0   5  10  11  1 18
54  70   0   6  10  12  1 16
55  70   0   5  10  11  1 18
56  70   0   6  10  12  1 16
57  70   0   5  10  11  1 18
58  70   0   6  10  12  1 16
59  70   0   5  10  11  1 18
60  70   0   6  10  12  1 16
61  70   0   5  10  11  1 18
62  70   0   6  10  12  1 16
63  70   0   5  10  11  1 18
64  70   0   6  10  12  1 16
65  70   0   5  10  11  1 18
66  70   0   6  10  12  1 16
67  70   0   5  10  11  1 18
68  70   0   6  10  12  1 16
69  70   0   5  10  11  1 18
70  70   0   6  10  12  1 16
71  70   0   5  10  11  1 18
72  70   0   6  10  12  1 16
73  70   0   5  10  11  1 18
74  70   0   6  10  12  1 16
75  70   0   5  10  11  1 18
76  70   0   6  10  12  1 16
77  70   0   5  13  14  1 18
78   0   0   0   0   0  0 19
79 194016   0   0   0   0  0  0
80   0   0   0   0   0  0 20

# Format of RF events:
# id ampl. mag_id phase_id time_shape_id center delay freqPPM phasePPM freq phase use
# ..   Hz      ..       ..            ..     us    us     ppm  rad/MHz   Hz   rad  ..
# Field 'use' is the initial of: 
#   excitation refocusing inversion saturation preparation other undefined
[RF]
1       129.71 1 2 3 4000 100 0 0 -424.504 10.6689 s
2       1004.9 4 5 0 1000 130 0 0 0 -0 e

# Format of arbitrary gradients:
#   time_shape_id of 0 means default timing (stepping with grad_raster starting at 1/2 of grad_raster)
# id amplitude first last amp_shape_id time_shape_id delay
# ..      Hz/m  Hz/m Hz/m        ..         ..          us
[GRADIENTS]
8       -13369            0       -13369 6 7 520
9      -877193            0      -877193 6 8 520
10       -13369       -13369       -13369 9 10 0
11      -877193      -877193       877193 11 12 0
12       877193       877193      -877193 13 12 0
13       -13369       -13369            0 14 15 0
14      -877193      -877193            0 14 16 0

# Format of trapezoid gradients:
# id amplitude rise flat fall delay
# ..      Hz/m   us   us   us    us
[TRAP]
 1  1.35135e+06 250  490 250 8130
 2       666667 130 2000 130   0
 3       869875 170    0 170 440
 4 -1.33962e+06 250  280 250   0
 5      -484848  90  520  90   0
 6       484848  90  520  90   0
 7       190418  40  700  40   0

# Format of ADC events:
# id num dwell delay freqPPM phasePPM freq phase phase_id
# ..  ..    ns    us     ppm  rad/MHz   Hz   rad       ..
[ADC]
1 128 4900 36 0 0 0 0 0

# Format of extension lists:
# id type ref next_id
# next_id of 0 terminates the list
# Extension list is followed by extension specifications
[EXTENSIONS]
1 1 1 0
2 3 1 0
3 1 2 0
4 1 3 3
5 1 4 0
6 1 5 5
7 1 6 6
8 1 6 0
9 1 7 8
10 1 8 9
11 1 9 6
12 1 10 8
13 1 11 12
14 4 1 0
15 1 7 14
16 1 8 15
17 1 4 14
18 1 5 17
19 4 2 0
20 4 3 0

# Extension specification for digital output and input triggers:
# id type channel delay (us) duration (us)
extension TRIGGERS 3
1 1 1 0 100

# Extension specification for setting labels:
# id set labelstring
extension LABELSET 1
1 0 SLC
2 1 NAV
3 32 LIN
4 1 REV
5 1 SEG
6 0 AVG
7 0 REV
8 0 SEG
9 1 AVG
10 -1 LIN
11 0 NAV

# Extension specification for increasing labels:
# id inc labelstring
extension LABELINC 4
1 1 LIN
2 1 SLC
3 1 REP

# Sequence Shapes
[SHAPES]

shape_id 1
num_samples 800
0.000119120081
0.000124624967
0.000130369487
0.000136363358
0.000142616654
0.000149139823
0.0001559437
0.000163039513
0.000170438904
0.000178153937
0.000186197112
0.000194581382
0.000203320166
0.00021242736
0.00022191736
0.000231805069
0.000242105919
0.000252835884
0.0002640115
0.000275649877
0.000287768723
0.000300386355
0.000313521726
0.000327194434
0.000341424751
0.000356233634
0.000371642753
0.000387674506
0.000404352044
0.000421699291
0.000439740965
0.000458502604
0.000478010587
0.000498292156
0.000519375444
0.000541289499
0.000564064305
0.000587730813
0.000612320966
0.000637867722
0.000664405088
0.000691968142
0.000720593064
0.000750317164
0.000781178914
0.000813217976
0.000846475231
0.000880992814
0.000916814144
0.000953983954
0.000992548328
0.00103255473
0.00107405205
0.00111709061
0.00116172223
0.00120800026
0.00125597958
0.0013057167
0.00135726974
0.00141069849
0.00146606445
0.00152343087
0.00158286277
0.00164442703
0.00170819236
0.0017742294
0.00184261072
0.00191341089
0.00198670652
0.00206257629
0.00214110098
0.00222236356
0.00230644919
0.00239344527
0.00248344153
0.00257653
0.00267280512
0.00277236375
0.00287530525
0.00298173147
0.00309174685
0.00320545845
0.003322976
0.00344441192
0.00356988142
0.00369950248
0.00383339598
0.00397168567
0.00411449826
0.00426196348
0.00441421407
0.00457138591
0.00473361799
0.0049010525
0.00507383488
0.00525211384
0.00543604145
0.00562577314
0.00582146777
0.00602328769
0.00623139875
0.00644597039
0.00666717564
0.00689519119
0.00713019745
0.00737237856
0.00762192243
0.00787902084
0.00814386939
0.00841666765
0.00869761908
0.00898693116
0.0092848154
0.00959148737
0.00990716673
0.0102320773
0.010566447
0.010910508
0.0112644967
0.0116286537
0.012003224
0.0123884568
0.0127846057
0.0131919287
0.0136106879
0.0140411501
0.0144835865
0.0149382726
0.0154054883
0.0158855181
0.0163786509
0.0168851801
0.0174054034
0.0179396232
0.0184881462
0.0190512836
0.0196293513
0.0202226692
0.020831562
0.0214563586
0.0220973926
0.0227550015
0.0234295277
0.0241213176
0.0248307219
0.0255580956
0.0263037982
0.0270681929
0.0278516475
0.0286545335
0.0294772268
0.030320107
0.0311835578
0.0320679667
0.032973725
0.0339012277
0.0348508735
0.0358230646
0.0368182067
0.0378367089
0.0388789836
0.0399454464
0.0410365159
0.0421526139
0.0432941649
0.0444615962
0.0456553378
0.0468758221
0.048123484
0.0493987606
0.050702091
0.0520339164
0.0533946798
0.0547848258
0.0562048004
0.0576550512
0.0591360267
0.0606481764
0.0621919508
0.0637678008
0.0653761778
0.0670175334
0.0686923192
0.0704009868
0.0721439872
0.0739217708
0.0757347872
0.077583485
0.0794683115
0.0813897125
0.0833481317
0.0853440113
0.0873777909
0.0894499077
0.091560796
0.0937108871
0.0959006092
0.0981303865
0.10040064
0.102711785
0.105064235
0.107458396
0.10989467
0.112373455
0.114895142
0.117460116
0.120068756
0.122721434
0.125418517
0.128160363
0.130947322
0.133779738
0.136657945
0.139582271
0.142553033
0.145570538
0.148635087
0.151746968
0.154906461
0.158113833
0.161369342
0.164673235
0.168025746
0.171427098
0.174877503
0.178377158
0.181926248
0.185524945
0.189173409
0.192871782
0.196620195
0.200418765
0.20426759
0.208166757
0.212116335
0.216116377
0.220166922
0.224267989
0.228419583
0.23262169
0.23687428
0.241177302
0.245530691
0.24993436
0.254388206
0.258892105
0.263445914
0.268049471
0.272702594
0.27740508
0.282156707
0.286957231
0.291806388
0.296703892
0.301649437
0.306642694
0.311683312
0.316770921
0.321905124
0.327085506
0.332311627
0.337583025
0.342899215
0.34825969
0.353663918
0.359111344
0.364601392
0.370133461
0.375706925
0.381321136
0.386975423
0.392669091
0.398401419
0.404171664
0.40997906
0.415822817
0.421702118
0.427616128
0.433563983
0.439544798
0.445557665
0.451601651
0.457675799
0.463779133
0.469910648
0.47606932
0.482254102
0.488463923
0.49469769
0.500954289
0.507232582
0.51353141
0.519849594
0.526185933
0.532539203
0.538908163
0.545291548
0.551688076
0.558096445
0.564515331
0.570943395
0.577379277
0.583821599
0.590268966
0.596719967
0.603173172
0.609627136
0.616080397
0.62253148
0.628978892
0.635421129
0.641856672
0.648283987
0.65470153
0.661107744
0.66750106
0.673879898
0.68024267
0.686587775
0.692913606
0.699218546
0.705500971
0.711759248
0.717991742
0.724196808
0.730372799
0.736518061
0.74263094
0.748709776
0.754752909
0.760758676
0.766725415
0.772651463
0.778535159
0.784374843
0.790168858
0.795915549
0.801613266
0.807260363
0.812855202
0.818396148
0.823881575
0.829309865
0.834679408
0.839988604
0.845235864
0.850419607
0.855538267
0.860590291
0.865574137
0.870488278
0.875331203
0.880101417
0.884797439
0.889417807
0.893961078
0.898425827
0.902810647
0.907114154
0.911334982
0.91547179
0.919523256
0.923488085
0.927365001
0.931152758
0.934850131
0.938455922
0.941968961
0.945388102
0.948712229
0.951940255
0.955071121
0.958103795
0.96103728
0.963870605
0.966602833
0.969233059
0.971760407
0.974184037
0.976503141
0.978716944
0.980824705
0.982825719
0.984719313
0.986504852
0.988181735
0.989749397
0.991207311
0.992554983
0.993791959
0.99491782
0.995932185
0.996834712
0.997625093
0.998303062
0.998868388
0.999320879
0.999660382
0.999886781
1
1
0.999886781
0.999660382
0.999320879
0.998868388
0.998303062
0.997625093
0.996834712
0.995932185
0.99491782
0.993791959
0.992554983
0.991207311
0.989749397
0.988181735
0.986504852
0.984719313
0.982825719
0.980824705
0.978716944
0.976503141
0.974184037
0.971760407
0.969233059
0.966602833
0.963870605
0.96103728
0.958103795
0.955071121
0.951940255
0.948712229
0.945388102
0.941968961
0.938455922
0.934850131
0.931152758
0.927365001
0.923488085
0.919523256
0.91547179
0.911334982
0.907114154
0.902810647
0.898425827
0.893961078
0.889417807
0.884797439
0.880101417
0.875331203
0.870488278
0.865574137
0.860590291
0.855538267
0.850419607
0.845235864
0.839988604
0.834679408
0.829309865
0.823881575
0.818396148
0.812855202
0.807260363
0.801613266
0.795915549
0.790168858
0.784374843
0.778535159
0.772651463
0.766725415
0.760758676
0.754752909
0.748709776
0.74263094
0.736518061
0.730372799
0.724196808
0.717991742
0.711759248
0.705500971
0.699218546
0.692913606
0.686587775
0.68024267
0.673879898
0.66750106
0.661107744
0.65470153
0.648283987
0.641856672
0.635421129
0.628978892
0.62253148
0.616080397
0.609627136
0.603173172
0.596719967
0.590268966
0.583821599
0.577379277
0.570943395
0.564515331
0.558096445
0.551688076
0.545291548
0.538908163
0.532539203
0.526185933
0.519849594
0.51353141
0.507232582
0.500954289
0.49469769
0.488463923
0.482254102
0.47606932
0.469910648
0.463779133
0.457675799
0.451601651
0.445557665
0.439544798
0.433563983
0.427616128
0.421702118
0.415822817
0.40997906
0.404171664
0.398401419
0.392669091
0.386975423
0.381321136
0.375706925
0.370133461
0.364601392
0.359111344
0.353663918
0.34825969
0.342899215
0.337583025
0.332311627
0.327085506
0.321905124
0.316770921
0.311683312
0.306642694
0.301649437
0.296703892
0.291806388
0.286957231
0.282156707
0.27740508
0.272702594
0.268049471
0.263445914
0.258892105
0.254388206
0.24993436
0.245530691
0.241177302
0.23687428
0.23262169
0.228419583
0.224267989
0.220166922
0.216116377
0.212116335
0.208166757
0.20426759
0.200418765
0.196620195
0.192871782
0.189173409
0.185524945
0.181926248
0.178377158
0.174877503
0.171427098
0.168025746
0.164673235
0.161369342
0.158113833
0.154906461
0.151746968
0.148635087
0.145570538
0.142553033
0.139582271
0.136657945
0.133779738
0.130947322
0.128160363
0.125418517
0.122721434
0.120068756
0.117460116
0.114895142
0.112373455
0.10989467
0.107458396
0.105064235
0.102711785
0.10040064
0.0981303865
0.0959006092
0.0937108871
0.091560796
0.0894499077
0.0873777909
0.0853440113
0.0833481317
0.0813897125
0.0794683115
0.077583485
0.0757347872
0.0739217708
0.0721439872
0.0704009868
0.0686923192
0.0670175334
0.0653761778
0.0637678008
0.0621919508
0.0606481764
0.0591360267
0.0576550512
0.0562048004
0.0547848258
0.0533946798
0.0520339164
0.050702091
0.0493987606
0.048123484
0.0468758221
0.0456553378
0.0444615962
0.0432941649
0.0421526139
0.0410365159
0.0399454464
0.0388789836
0.0378367089
0.0368182067
0.0358230646
0.0348508735
0.0339012277
0.032973725
0.0320679667
0.0311835578
0.030320107
0.0294772268
0.0286545335
0.0278516475
0.0270681929
0.0263037982
0.0255580956
0.0248307219
0.0241213176
0.0234295277
0.0227550015
0.0220973926
0.0214563586
0.020831562
0.0202226692
0.0196293513
0.0190512836
0.0184881462
0.0179396232
0.0174054034
0.0168851801
0.0163786509
0.0158855181
0.0154054883
0.0149382726
0.0144835865
0.0140411501
0.0136106879
0.0131919287
0.0127846057
0.0123884568
0.012003224
0.0116286537
0.0112644967
0.010910508
0.010566447
0.0102320773
0.00990716673
0.00959148737
0.0092848154
0.00898693116
0.00869761908
0.00841666765
0.00814386939
0.00787902084
0.00762192243
0.00737237856
0.00713019745
0.00689519119
0.00666717564
0.00644597039
0.00623139875
0.00602328769
0.00582146777
0.00562577314
0.00543604145
0.00525211384
0.00507383488
0.0049010525
0.00473361799
0.00457138591
0.00441421407
0.00426196348
0.00411449826
0.00397168567
0.00383339598
0.00369950248
0.00356988142
0.00344441192
0.003322976
0.00320545845
0.00309174685
0.00298173147
0.00287530525
0.00277236375
0.00267280512
0.00257653
0.00248344153
0.00239344527
0.00230644919
0.00222236356
0.00214110098
0.00206257629
0.00198670652
0.00191341089
0.00184261072
0.0017742294
0.00170819236
0.00164442703
0.00158286277
0.00152343087
0.00146606445
0.00141069849
0.00135726974
0.0013057167
0.00125597958
0.00120800026
0.00116172223
0.00111709061
0.00107405205
0.00103255473
0.000992548328
0.000953983954
0.000916814144
0.000880992814
0.000846475231
0.000813217976
0.000781178914
0.000750317164
0.000720593064
0.000691968142
0.000664405088
0.000637867722
0.000612320966
0.000587730813
0.000564064305
0.000541289499
0.000519375444
0.000498292156
0.000478010587
0.000458502604
0.000439740965
0.000421699291
0.000404352044
0.000387674506
0.000371642753
0.000356233634
0.000341424751
0.000327194434
0.000313521726
0.000300386355
0.000287768723
0.000275649877
0.0002640115
0.000252835884
0.000242105919
0.000231805069
0.00022191736
0.00021242736
0.000203320166
0.000194581382
0.000186197112
0.000178153937
0.000170438904
0.000163039513
0.0001559437
0.000149139823
0.000142616654
0.000136363358
0.000130369487
0.000124624967
0.000119120081

shape_id 2
num_samples 800
0
0
798

shape_id 3
num_samples 800
5
10
10
797

shape_id 4
num_samples 2000
8.00387408e-05
0.00024034553
0.000400948108
0.000561834483
0.000722992611
0.000884410387
0.00104607565
0.00120797616
0.00137009963
0.00153243368
0.00169496589
0.00185768372
0.00202057459
0.00218362582
0.00234682463
0.00251015817
0.00267361351
0.00283717758
0.00300083726
0.00316457931
0.00332839038
0.00349225701
0.00365616564
0.0038201026
0.0039840541
0.00414800622
0.00431194493
0.00447585606
0.00463972534
0.00480353835
0.00496728053
0.0051309372
0.00529449354
0.00545793456
0.00562124516
0.00578441009
0.00594741392
0.0061102411
0.00627287592
0.00643530249
0.00659750479
0.00675946661
0.00692117161
0.00708260325
0.00724374483
0.0074045795
0.00756509021
0.00772525975
0.00788507072
0.00804450557
0.00820354653
0.00836217567
0.00852037488
0.00867812585
0.0088354101
0.00899220894
0.0091485035
0.00930427472
0.00945950336
0.00961416995
0.00976825486
0.00992173826
0.0100746001
0.0102268201
0.0103783779
0.0105292529
0.0106794242
0.0108288707
0.0109775713
0.0111255046
0.0112726487
0.0114189821
0.0115644825
0.0117091278
0.0118528955
0.011995763
0.0121377075
0.0122787058
0.0124187348
0.012557771
0.0126957908
0.0128327704
0.0129686856
0.0131035124
0.0132372262
0.0133698025
0.0135012164
0.013631443
0.0137604571
0.0138882334
0.0140147462
0.0141399698
0.0142638784
0.0143864458
0.0145076459
0.014627452
0.0147458378
0.0148627763
0.0149782406
0.0150922037
0.0152046383
0.0153155169
0.0154248121
0.0155324961
0.015638541
0.0157429188
0.0158456015
0.0159465607
0.0160457681
0.016143195
0.016238813
0.0163325932
0.0164245067
0.0165145246
0.0166026177
0.016688757
0.0167729131
0.0168550566
0.0169351581
0.0170131882
0.0170891171
0.0171629153
0.017234553
0.0173040004
0.0173712278
0.0174362052
0.0174989027
0.0175592905
0.0176173385
0.0176730168
0.0177262954
0.0177771443
0.0178255335
0.017871433
0.0179148129
0.0179556433
0.0179938941
0.0180295356
0.018062538
0.0180928714
0.0181205061
0.0181454126
0.0181675612
0.0181869224
0.018203467
0.0182171655
0.0182279888
0.0182359079
0.0182408937
0.0182429176
0.0182419508
0.0182379649
0.0182309314
0.0182208222
0.0182076094
0.018191265
0.0181717614
0.0181490713
0.0181231674
0.0180940228
0.0180616107
0.0180259046
0.0179868782
0.0179445055
0.0178987609
0.0178496188
0.0177970541
0.017741042
0.0176815579
0.0176185775
0.017552077
0.0174820328
0.0174084216
0.0173312207
0.0172504075
0.01716596
0.0170778563
0.0169860751
0.0168905956
0.0167913973
0.01668846
0.0165817641
0.0164712905
0.0163570204
0.0162389356
0.0161170183
0.0159912512
0.0158616175
0.0157281009
0.0155906857
0.0154493566
0.015304099
0.0151548988
0.0150017423
0.0148446165
0.0146835091
0.0145184081
0.0143493024
0.0141761814
0.013999035
0.0138178538
0.0136326292
0.0134433531
0.013250018
0.0130526173
0.0128511447
0.0126455951
0.0124359636
0.0122222463
0.01200444
0.0117825421
0.0115565509
0.0113264652
0.0110922849
0.0108540104
0.010611643
0.0103651846
0.0101146382
0.00986000723
0.00960129626
0.0093385105
0.00907165602
0.00880073972
0.00852576936
0.00824675353
0.00796370168
0.00767662413
0.00738553208
0.00709043759
0.00679135363
0.00648829406
0.00618127363
0.005870308
0.00555541378
0.00523660845
0.00491391047
0.0045873392
0.00425691496
0.00392265901
0.00358459359
0.00324274186
0.00289712797
0.00254777705
0.00219471518
0.00183796946
0.00147756793
0.00111353967
0.000745914722
0.000374724145
1.10068777e-17
0.000378224643
0.000759915699
0.00114503807
0.00153355563
0.00192543124
0.00232062672
0.00271910287
0.00312081946
0.00352573521
0.00393380783
0.00434499397
0.00475924923
0.0051765282
0.00559678439
0.0060199703
0.00644603735
0.00687493593
0.00730661539
0.00774102402
0.00817810908
0.00861781675
0.00906009219
0.00950487952
0.00995212178
0.010401761
0.0108537382
0.0113079932
0.011764465
0.0122230915
0.0126838094
0.0131465546
0.0136112618
0.0140778647
0.0145462962
0.0150164878
0.0154883703
0.0159618733
0.0164369256
0.0169134548
0.0173913876
0.0178706496
0.0183511656
0.0188328593
0.0193156535
0.0197994699
0.0202842293
0.0207698517
0.021256256
0.0217433601
0.0222310811
0.0227193352
0.0232080376
0.0236971026
0.0241864435
0.0246759731
0.0251656029
0.0256552437
0.0261448054
0.0266341972
0.0271233272
0.027612103
0.028100431
0.0285882171
0.0290753664
0.0295617829
0.0300473702
0.0305320311
0.0310156673
0.0314981802
0.0319794703
0.0324594374
0.0329379805
0.0334149982
0.0338903881
0.0343640474
0.0348358727
0.0353057597
0.0357736038
0.0362392996
0.0367027413
0.0371638223
0.0376224358
0.0380784742
0.0385318295
0.0389823932
0.0394300564
0.0398747095
0.0403162428
0.040754546
0.0411895084
0.041621019
0.0420489663
0.0424732385
0.0428937237
0.0433103093
0.0437228828
0.0441313312
0.0445355413
0.0449353997
0.0453307927
0.0457216067
0.0461077277
0.0464890414
0.0468654339
0.0472367906
0.0476029973
0.0479639395
0.0483195028
0.0486695725
0.0490140344
0.0493527739
0.0496856767
0.0500126285
0.0503335151
0.0506482224
0.0509566366
0.0512586438
0.0515541307
0.0518429838
0.0521250902
0.052400337
0.0526686118
0.0529298023
0.0531837968
0.0534304839
0.0536697524
0.0539014918
0.0541255918
0.0543419428
0.0545504355
0.0547509612
0.0549434119
0.0551276799
0.0553036583
0.0554712407
0.0556303214
0.0557807954
0.0559225585
0.056055507
0.0561795381
0.0562945497
0.0564004407
0.0564971107
0.05658446
0.0566623902
0.0567308033
0.0567896027
0.0568386926
0.056877978
0.0569073652
0.0569267614
0.0569360749
0.0569352152
0.0569240928
0.0569026194
0.0568707078
0.0568282721
0.0567752277
0.0567114911
0.0566369801
0.056551614
0.0564553132
0.0563479995
0.0562295964
0.0561000283
0.0559592214
0.0558071034
0.0556436032
0.0554686514
0.0552821803
0.0550841235
0.0548744162
0.0546529954
0.0544197997
0.0541747693
0.0539178461
0.0536489737
0.0533680976
0.0530751649
0.0527701245
0.0524529271
0.0521235255
0.0517818741
0.0514279291
0.0510616489
0.0506829936
0.0502919255
0.0498884085
0.0494724089
0.0490438948
0.0486028364
0.0481492059
0.0476829777
0.0472041283
0.0467126362
0.0462084821
0.0456916491
0.0451621221
0.0446198885
0.0440649378
0.0434972619
0.0429168547
0.0423237128
0.0417178346
0.0410992212
0.040467876
0.0398238046
0.0391670151
0.038497518
0.0378153261
0.0371204548
0.0364129218
0.0356927473
0.0349599541
0.0342145672
0.0334566144
0.032686126
0.0319031345
0.0311076754
0.0302997865
0.0294795081
0.0286468834
0.0278019579
0.0269447797
0.0260753999
0.0251938717
0.0243002514
0.0233945977
0.022476972
0.0215474383
0.0206060636
0.0196529171
0.0186880711
0.0177116005
0.0167235827
0.0157240981
0.0147132297
0.0136910631
0.012657687
0.0116131924
0.0105576733
0.00949122639
0.00841395114
0.00732594973
0.00622732709
0.00511819094
0.00399865173
0.00286882269
0.0017288198
0.000578761804
0.000581229803
0.00175103076
0.00293051405
0.0041195499
0.00531800578
0.00652574643
0.00774263382
0.0089685272
0.010203283
0.0114467551
0.0126987945
0.0139592495
0.0152279657
0.016504786
0.0177895506
0.0190820969
0.0203822599
0.0216898716
0.0230047616
0.0243267566
0.0256556809
0.0269913559
0.0283336006
0.0296822314
0.0310370618
0.0323979032
0.0337645639
0.0351368501
0.0365145652
0.0378975101
0.0392854833
0.0406782808
0.0420756959
0.0434775197
0.0448835407
0.0462935452
0.0477073168
0.0491246368
0.0505452844
0.0519690361
0.0533956663
0.054824947
0.0562566479
0.0576905366
0.0591263782
0.060563936
0.0620029706
0.063443241
0.0648845035
0.0663265127
0.067769021
0.0692117788
0.0706545342
0.0720970336
0.0735390214
0.0749802398
0.0764204295
0.0778593289
0.0792966748
0.0807322021
0.0821656439
0.0835967316
0.0850251947
0.0864507611
0.0878731573
0.0892921076
0.0907073353
0.0921185616
0.0935255067
0.0949278888
0.096325425
0.0977178309
0.0991048205
0.100486107
0.101861401
0.103230414
0.104592854
0.105948429
0.107296847
0.108637811
0.109971027
0.111296199
0.112613028
0.113921216
0.115220464
0.116510471
0.117790936
0.119061557
0.120322031
0.121572055
0.122811326
0.124039537
0.125256384
0.126461561
0.127654762
0.12883568
0.130004008
0.131159438
0.132301662
0.133430374
0.134545263
0.135646022
0.136732342
0.137803915
0.138860432
0.139901584
0.140927063
0.14193656
0.142929767
0.143906375
0.144866078
0.145808568
0.146733536
0.147640678
0.148529685
0.149400254
0.150252077
0.151084852
0.151898273
0.152692037
0.153465843
0.154219388
0.154952371
0.155664493
0.156355454
0.157024957
0.157672704
0.1582984
0.15890175
0.159482461
0.16004024
0.160574797
0.161085842
0.161573087
0.162036245
0.162475031
0.162889162
0.163278356
0.163642331
0.163980811
0.164293517
0.164580175
0.164840512
0.165074256
0.165281139
0.165460893
0.165613253
0.165737955
0.165834739
0.165903347
0.165943522
0.165955009
0.165937557
0.165890917
0.165814842
0.165709088
0.165573412
0.165407576
0.165211343
0.16498448
0.164726754
0.164437939
0.164117808
0.163766139
0.163382713
0.162967312
0.162519724
0.162039738
0.161527146
0.160981745
0.160403332
0.159791712
0.159146688
0.158468071
0.157755672
0.157009307
0.156228795
0.15541396
0.154564627
0.153680626
0.152761791
0.15180796
0.150818972
0.149794673
0.148734911
0.147639539
0.146508412
0.145341392
0.144138341
0.142899129
0.141623627
0.140311712
0.138963263
0.137578166
0.136156309
0.134697584
0.133201889
0.131669126
0.130099199
0.128492018
0.126847499
0.12516556
0.123446123
0.121689117
0.119894474
0.11806213
0.116192027
0.114284111
0.112338331
0.110354642
0.108333006
0.106273385
0.104175748
0.10204007
0.0998663295
0.097654509
0.0954045969
0.093116586
0.0907904741
0.0884262637
0.0860239624
0.0835835824
0.081105141
0.0785886604
0.0760341677
0.0734416951
0.0708112794
0.0681429629
0.0654367925
0.0626928204
0.0599111035
0.0570917041
0.0542346892
0.0513401313
0.0484081074
0.0454387001
0.0424319968
0.03938809
0.0363070775
0.0331890619
0.0300341511
0.0268424581
0.023614101
0.0203492029
0.0170478923
0.0137103025
0.0103365722
0.00692684492
0.00348126956
3.40998825e-17
0.00351680472
0.00706898048
0.010656358
0.0142787631
0.0179360161
0.0216279327
0.0253543232
0.029114993
0.0329097423
0.0367383665
0.0406006556
0.0444963948
0.0484253644
0.0523873394
0.05638209
0.0604093814
0.0644689739
0.0685606227
0.0726840781
0.0768390858
0.0810253862
0.085242715
0.0894908031
0.0937693766
0.0980781567
0.10241686
0.106785198
0.111182877
0.115609601
0.120065066
0.124548965
0.129060987
0.133600815
0.138168129
0.142762603
0.147383907
0.152031707
0.156705664
0.161405434
0.16613067
0.170881019
0.175656127
0.18045563
0.185279166
0.190126365
0.194996853
0.199890254
0.204806185
0.209744262
0.214704094
0.219685288
0.224687448
0.22971017
0.234753051
0.239815682
0.244897648
0.249998536
0.255117923
0.260255386
0.265410499
0.27058283
0.275771944
0.280977406
0.286198772
0.291435599
0.296687439
0.301953842
0.307234353
0.312528514
0.317835867
0.323155946
0.328488287
0.33383242
0.339187873
0.344554172
0.349930838
0.355317392
0.36071335
0.366118228
0.371531538
0.376952789
0.382381488
0.387817141
0.39325925
0.398707315
0.404160836
0.409619308
0.415082225
0.420549081
0.426019364
0.431492565
0.436968169
0.442445661
0.447924526
0.453404245
0.458884298
0.464364165
0.469843322
0.475321247
0.480797413
0.486271296
0.491742367
0.497210098
0.50267396
0.508133423
0.513587956
0.519037026
0.524480102
0.52991665
0.535346136
0.540768026
0.546181786
0.55158688
0.556982773
0.56236893
0.567744815
0.573109891
0.578463625
0.583805479
0.589134918
0.594451407
0.59975441
0.605043394
0.610317823
0.615577164
0.620820884
0.62604845
0.631259329
0.636452992
0.641628907
0.646786545
0.651925378
0.657044878
0.662144519
0.667223776
0.672282126
0.677319045
0.682334013
0.68732651
0.692296019
0.697242023
0.702164006
0.707061457
0.711933864
0.716780718
0.721601512
0.72639574
0.7311629
0.73590249
0.740614013
0.74529697
0.74995087
0.754575219
0.759169529
0.763733314
0.76826609
0.772767376
0.777236692
0.781673565
0.786077522
0.790448092
0.79478481
0.799087212
0.803354838
0.807587231
0.811783937
0.815944506
0.820068491
0.824155449
0.828204939
0.832216526
0.836189776
0.840124262
0.844019558
0.847875243
0.851690899
0.855466113
0.859200476
0.862893583
0.866545033
0.870154428
0.873721376
0.877245489
0.880726383
0.884163678
0.887557
0.890905976
0.894210243
0.897469437
0.900683204
0.903851189
0.906973047
0.910048435
0.913077016
0.916058456
0.918992429
0.921878612
0.924716686
0.927506341
0.930247267
0.932939165
0.935581735
0.938174688
0.940717736
0.943210598
0.945653
0.948044671
0.950385347
0.952674768
0.95491268
0.957098837
0.959232995
0.961314918
0.963344375
0.96532114
0.967244994
0.969115724
0.970933121
0.972696984
0.974407115
0.976063326
0.977665431
0.979213251
0.980706616
0.982145357
0.983529316
0.984858336
0.986132271
0.987350978
0.98851432
0.989622169
0.990674399
0.991670894
0.992611543
0.993496238
0.994324883
0.995097384
0.995813655
0.996473614
0.997077189
0.997624312
0.99811492
0.99854896
0.998926382
0.999247143
0.999511208
0.999718547
0.999869135
0.999962957
1
0.999980261
0.999903741
0.999770448
0.999580398
0.99933361
0.999030112
0.998669937
0.998253125
0.997779723
0.997249782
0.996663361
0.996020526
0.995321347
0.994565903
0.993754277
0.992886559
0.991962845
0.990983238
0.989947847
0.988856787
0.987710179
0.98650815
0.985250834
0.983938369
0.982570903
0.981148587
0.979671577
0.97814004
0.976554143
0.974914063
0.973219983
0.971472089
0.969670575
0.967815641
0.965907493
0.963946341
0.961932403
0.959865901
0.957747065
0.955576128
0.95335333
0.951078918
0.948753141
0.946376257
0.943948528
0.941470223
0.938941613
0.936362978
0.933734602
0.931056774
0.928329789
0.925553947
0.922729553
0.919856916
0.916936354
0.913968185
0.910952736
0.907890337
0.904781324
0.901626036
0.89842482
0.895178025
0.891886005
0.888549122
0.885167737
0.881742221
0.878272946
0.87476029
0.871204635
0.867606369
0.863965881
0.860283567
0.856559826
0.852795062
0.848989683
0.8451441
0.841258729
0.83733399
0.833370305
0.829368104
0.825327816
0.821249876
0.817134723
0.8129828
0.80879455
0.804570424
0.800310874
0.796016356
0.791687328
0.787324253
0.782927596
0.778497826
0.774035414
0.769540834
0.765014563
0.760457082
0.755868874
0.751250423
0.746602218
0.74192475
0.737218512
0.732483999
0.727721709
0.722932142
0.718115802
0.713273191
0.708404817
0.703511189
0.698592816
0.693650212
0.68868389
0.683694366
0.678682158
0.673647786
0.668591768
0.663514629
0.65841689
0.653299078
0.648161717
0.643005336
0.637830461
0.632637623
0.627427352
0.622200179
0.616956635
0.611697254
0.606422568
0.601133111
0.595829418
0.590512024
0.585181464
0.579838274
0.574482988
0.569116144
0.563738277
0.558349923
0.552951618
0.547543898
0.542127299
0.536702357
0.531269606
0.525829581
0.520382817
0.514929846
0.509471204
0.504007421
0.498539029
0.49306656
0.487590544
0.482111509
0.476629984
