# Pulseq sequence file
# Created by MATLAB mr toolbox

[VERSION]
major 1
minor 5
revision 1

[DEFINITIONS]
AdcRasterTime 1e-07 
BlockDurationRaster 1e-05 
FOV 0.256 0.256 0.003 
GradientRasterTime 1e-05 
Name epise 
RadiofrequencyRasterTime 1e-06 
TotalDuration 2.49624 

# Format of blocks:
# NUM DUR RF  GX  GY  GZ  ADC  EXT
[BLOCKS]
   1 319   1   0   0   1  0  0
   2  80   0   0   0   2  0  0
   3 3486   0   0   0   0  0  0
   4 240   0   0   0   3  0  0
   5  62   2   0   0   0  0  0
   6 240   0   0   0   3  0  0
   7 1066   0   0   0   0  0  0
   8  80   0   4   0   0  0  0
   9  62   0   5   0   0  1  0
  10  62   0   6   0   0  1  0
  11  80   0   7   0   0  0  0
  12  80   0   4   8   0  0  0
  13  62   0   5   0   0  1  0
  14   9   0   0   9  10  0  0
  15  62   0   6   0   0  1  0
  16   9   0   0   9  10  0  0
  17  62   0   5   0   0  1  0
  18   9   0   0   9  11  0  0
  19  62   0   6   0   0  1  0
  20   9   0   0   9  10  0  0
  21  62   0   5   0   0  1  0
  22   9   0   0   9  10  0  0
  23  62   0   6   0   0  1  0
  24   9   0   0   9  11  0  0
  25  62   0   5   0   0  1  0
  26   9   0   0   9  10  0  0
  27  62   0   6   0   0  1  0
  28   9   0   0   9  10  0  0
  29  62   0   5   0   0  1  0
  30   9   0   0   9  11  0  0
  31  62   0   6   0   0  1  0
  32   9   0   0   9  10  0  0
  33  62   0   5   0   0  1  0
  34   9   0   0   9  10  0  0
  35  62   0   6   0   0  1  0
  36   9   0   0   9  11  0  0
  37  62   0   5   0   0  1  0
  38   9   0   0   9  10  0  0
  39  62   0   6   0   0  1  0
  40   9   0   0   9  10  0  0
  41  62   0   5   0   0  1  0
  42   9   0   0   9  11  0  0
  43  62   0   6   0   0  1  0
  44   9   0   0   9  10  0  0
  45  62   0   5   0   0  1  0
  46   9   0   0   9  10  0  0
  47  62   0   6   0   0  1  0
  48   9   0   0   9  11  0  0
  49  62   0   5   0   0  1  0
  50   9   0   0   9  10  0  0
  51  62   0   6   0   0  1  0
  52   9   0   0   9  10  0  0
  53  62   0   5   0   0  1  0
  54   9   0   0   9  11  0  0
  55  62   0   6   0   0  1  0
  56   9   0   0   9  10  0  0
  57  62   0   5   0   0  1  0
  58   9   0   0   9  10  0  0
  59  62   0   6   0   0  1  0
  60   9   0   0   9  11  0  0
  61  62   0   5   0   0  1  0
  62   9   0   0   9  10  0  0
  63  62   0   6   0   0  1  0
  64   9   0   0   9  10  0  0
  65  62   0   5   0   0  1  0
  66   9   0   0   9  11  0  0
  67  62   0   6   0   0  1  0
  68   9   0   0   9  10  0  0
  69  62   0   5   0   0  1  0
  70   9   0   0   9  10  0  0
  71  62   0   6   0   0  1  0
  72   9   0   0   9  11  0  0
  73  62   0   5   0   0  1  0
  74   9   0   0   9  10  0  0
  75  62   0   6   0   0  1  0
  76   9   0   0   9  10  0  0
  77  62   0   5   0   0  1  0
  78   9   0   0   9  11  0  0
  79  62   0   6   0   0  1  0
  80   9   0   0   9  10  0  0
  81  62   0   5   0   0  1  0
  82   9   0   0   9  10  0  0
  83  62   0   6   0   0  1  0
  84   9   0   0   9  11  0  0
  85  62   0   5   0   0  1  0
  86   9   0   0   9  10  0  0
  87  62   0   6   0   0  1  0
  88   9   0   0   9  10  0  0
  89  62   0   5   0   0  1  0
  90   9   0   0   9  11  0  0
  91  62   0   6   0   0  1  0
  92   9   0   0   9  10  0  0
  93  62   0   5   0   0  1  0
  94   9   0   0   9  10  0  0
  95  62   0   6   0   0  1  0
  96   9   0   0   9  11  0  0
  97  62   0   5   0   0  1  0
  98   9   0   0   9  10  0  0
  99  62   0   6   0   0  1  0
 100   9   0   0   9  10  0  0
 101  62   0   5   0   0  1  0
 102   9   0   0   9  11  0  0
 103  62   0   6   0   0  1  0
 104   9   0   0   9  10  0  0
 105  62   0   5   0   0  1  0
 106   9   0   0   9  10  0  0
 107  62   0   6   0   0  1  0
 108   9   0   0   9  11  0  0
 109  62   0   5   0   0  1  0
 110   9   0   0   9  10  0  0
 111  62   0   6   0   0  1  0
 112   9   0   0   9  10  0  0
 113  62   0   5   0   0  1  0
 114   9   0   0   9  11  0  0
 115  62   0   6   0   0  1  0
 116   9   0   0   9  10  0  0
 117  62   0   5   0   0  1  0
 118   9   0   0   9  10  0  0
 119  62   0   6   0   0  1  0
 120   9   0   0   9  11  0  0
 121  62   0   5   0   0  1  0
 122   9   0   0   9  10  0  0
 123  62   0   6   0   0  1  0
 124   9   0   0   9  10  0  0
 125  62   0   5   0   0  1  0
 126   9   0   0   9  11  0  0
 127  62   0   6   0   0  1  0
 128   9   0   0   9  10  0  0
 129  62   0   5   0   0  1  0
 130   9   0   0   9  10  0  0
 131  62   0   6   0   0  1  0
 132   9   0   0   9  11  0  0
 133  62   0   5   0   0  1  0
 134   9   0   0   9  10  0  0
 135  62   0   6   0   0  1  0
 136   9   0   0   9  10  0  0
 137  62   0   5   0   0  1  0
 138   9   0   0   9  11  0  0
 139  62   0   6   0   0  1  0
 140   9   0   0   9  10  0  0
 141 319   3   0   0   1  0  0
 142  80   0   0   0   2  0  0
 143 3486   0   0   0   0  0  0
 144 240   0   0   0   3  0  0
 145  62   2   0   0   0  0  0
 146 240   0   0   0   3  0  0
 147 1066   0   0   0   0  0  0
 148  80   0   4   0   0  0  0
 149  62   0   5   0   0  1  0
 150  62   0   6   0   0  1  0
 151  80   0   7   0   0  0  0
 152  80   0   4   8   0  0  0
 153  62   0   5   0   0  1  0
 154   9   0   0   9  10  0  0
 155  62   0   6   0   0  1  0
 156   9   0   0   9  10  0  0
 157  62   0   5   0   0  1  0
 158   9   0   0   9  11  0  0
 159  62   0   6   0   0  1  0
 160   9   0   0   9  10  0  0
 161  62   0   5   0   0  1  0
 162   9   0   0   9  10  0  0
 163  62   0   6   0   0  1  0
 164   9   0   0   9  11  0  0
 165  62   0   5   0   0  1  0
 166   9   0   0   9  10  0  0
 167  62   0   6   0   0  1  0
 168   9   0   0   9  10  0  0
 169  62   0   5   0   0  1  0
 170   9   0   0   9  11  0  0
 171  62   0   6   0   0  1  0
 172   9   0   0   9  10  0  0
 173  62   0   5   0   0  1  0
 174   9   0   0   9  10  0  0
 175  62   0   6   0   0  1  0
 176   9   0   0   9  11  0  0
 177  62   0   5   0   0  1  0
 178   9   0   0   9  10  0  0
 179  62   0   6   0   0  1  0
 180   9   0   0   9  10  0  0
 181  62   0   5   0   0  1  0
 182   9   0   0   9  11  0  0
 183  62   0   6   0   0  1  0
 184   9   0   0   9  10  0  0
 185  62   0   5   0   0  1  0
 186   9   0   0   9  10  0  0
 187  62   0   6   0   0  1  0
 188   9   0   0   9  11  0  0
 189  62   0   5   0   0  1  0
 190   9   0   0   9  10  0  0
 191  62   0   6   0   0  1  0
 192   9   0   0   9  10  0  0
 193  62   0   5   0   0  1  0
 194   9   0   0   9  11  0  0
 195  62   0   6   0   0  1  0
 196   9   0   0   9  10  0  0
 197  62   0   5   0   0  1  0
 198   9   0   0   9  10  0  0
 199  62   0   6   0   0  1  0
 200   9   0   0   9  11  0  0
 201  62   0   5   0   0  1  0
 202   9   0   0   9  10  0  0
 203  62   0   6   0   0  1  0
 204   9   0   0   9  10  0  0
 205  62   0   5   0   0  1  0
 206   9   0   0   9  11  0  0
 207  62   0   6   0   0  1  0
 208   9   0   0   9  10  0  0
 209  62   0   5   0   0  1  0
 210   9   0   0   9  10  0  0
 211  62   0   6   0   0  1  0
 212   9   0   0   9  11  0  0
 213  62   0   5   0   0  1  0
 214   9   0   0   9  10  0  0
 215  62   0   6   0   0  1  0
 216   9   0   0   9  10  0  0
 217  62   0   5   0   0  1  0
 218   9   0   0   9  11  0  0
 219  62   0   6   0   0  1  0
 220   9   0   0   9  10  0  0
 221  62   0   5   0   0  1  0
 222   9   0   0   9  10  0  0
 223  62   0   6   0   0  1  0
 224   9   0   0   9  11  0  0
 225  62   0   5   0   0  1  0
 226   9   0   0   9  10  0  0
 227  62   0   6   0   0  1  0
 228   9   0   0   9  10  0  0
 229  62   0   5   0   0  1  0
 230   9   0   0   9  11  0  0
 231  62   0   6   0   0  1  0
 232   9   0   0   9  10  0  0
 233  62   0   5   0   0  1  0
 234   9   0   0   9  10  0  0
 235  62   0   6   0   0  1  0
 236   9   0   0   9  11  0  0
 237  62   0   5   0   0  1  0
 238   9   0   0   9  10  0  0
 239  62   0   6   0   0  1  0
 240   9   0   0   9  10  0  0
 241  62   0   5   0   0  1  0
 242   9   0   0   9  11  0  0
 243  62   0   6   0   0  1  0
 244   9   0   0   9  10  0  0
 245  62   0   5   0   0  1  0
 246   9   0   0   9  10  0  0
 247  62   0   6   0   0  1  0
 248   9   0   0   9  11  0  0
 249  62   0   5   0   0  1  0
 250   9   0   0   9  10  0  0
 251  62   0   6   0   0  1  0
 252   9   0   0   9  10  0  0
 253  62   0   5   0   0  1  0
 254   9   0   0   9  11  0  0
 255  62   0   6   0   0  1  0
 256   9   0   0   9  10  0  0
 257  62   0   5   0   0  1  0
 258   9   0   0   9  10  0  0
 259  62   0   6   0   0  1  0
 260   9   0   0   9  11  0  0
 261  62   0   5   0   0  1  0
 262   9   0   0   9  10  0  0
 263  62   0   6   0   0  1  0
 264   9   0   0   9  10  0  0
 265  62   0   5   0   0  1  0
 266   9   0   0   9  11  0  0
 267  62   0   6   0   0  1  0
 268   9   0   0   9  10  0  0
 269  62   0   5   0   0  1  0
 270   9   0   0   9  10  0  0
 271  62   0   6   0   0  1  0
 272   9   0   0   9  11  0  0
 273  62   0   5   0   0  1  0
 274   9   0   0   9  10  0  0
 275  62   0   6   0   0  1  0
 276   9   0   0   9  10  0  0
 277  62   0   5   0   0  1  0
 278   9   0   0   9  11  0  0
 279  62   0   6   0   0  1  0
 280   9   0   0   9  10  0  0
 281 319   4   0   0   1  0  0
 282  80   0   0   0   2  0  0
 283 3486   0   0   0   0  0  0
 284 240   0   0   0   3  0  0
 285  62   2   0   0   0  0  0
 286 240   0   0   0   3  0  0
 287 1066   0   0   0   0  0  0
 288  80   0   4   0   0  0  0
 289  62   0   5   0   0  1  0
 290  62   0   6   0   0  1  0
 291  80   0   7   0   0  0  0
 292  80   0   4   8   0  0  0
 293  62   0   5   0   0  1  0
 294   9   0   0   9  10  0  0
 295  62   0   6   0   0  1  0
 296   9   0   0   9  10  0  0
 297  62   0   5   0   0  1  0
 298   9   0   0   9  11  0  0
 299  62   0   6   0   0  1  0
 300   9   0   0   9  10  0  0
 301  62   0   5   0   0  1  0
 302   9   0   0   9  10  0  0
 303  62   0   6   0   0  1  0
 304   9   0   0   9  11  0  0
 305  62   0   5   0   0  1  0
 306   9   0   0   9  10  0  0
 307  62   0   6   0   0  1  0
 308   9   0   0   9  10  0  0
 309  62   0   5   0   0  1  0
 310   9   0   0   9  11  0  0
 311  62   0   6   0   0  1  0
[RF]
1      658.303 1 2 0 1500 100 0 0 -15333.3 0 e
2         1000 3 4 5 250 100 0 0 0 0 r
3      658.303 1 2 0 1500 100 0 0 -14000 0 e
4      658.303 1 2 0 1500 100 0 0 -12666.7 0 e
5      658.303 1 2 0 1500 100 0 0 -11333.3 0 e
6      658.303 1 2 0 1500 100 0 0 -10000 0 e
7      658.303 1 2 0 1500 100 0 0 -8666.67 0 e
8      658.303 1 2 0 1500 100 0 0 -7333.33 0 e
9      658.303 1 2 0 1500 100 0 0 -6000 0 e
10      658.303 1 2 0 1500 100 0 0 -4666.67 0 e
11      658.303 1 2 0 1500 100 0 0 -3333.33 0 e
12      658.303 1 2 0 1500 100 0 0 -2000 0 e
13      658.303 1 2 0 1500 100 0 0 -666.667 0 e
14      658.303 1 2 0 1500 100 0 0 666.667 0 e
15      658.303 1 2 0 1500 100 0 0 2000 0 e
16      658.303 1 2 0 1500 100 0 0 3333.33 0 e
17      658.303 1 2 0 1500 100 0 0 4666.67 0 e
18      658.303 1 2 0 1500 100 0 0 6000 0 e
19      658.303 1 2 0 1500 100 0 0 7333.33 0 e
20      658.303 1 2 0 1500 100 0 0 8666.67 0 e
21      658.303 1 2 0 1500 100 0 0 10000 0 e
22      658.303 1 2 0 1500 100 0 0 11333.3 0 e
23      658.303 1 2 0 1500 100 0 0 12666.7 0 e
24      658.303 1 2 0 1500 100 0 0 14000 0 e
25      658.303 1 2 0 1500 100 0 0 15333.3 0 e

# Format of trapezoid gradients:
# id amplitude rise flat fall delay
# ..      Hz/m   us   us   us    us
[TRAP]
 1       444444  90 3000  90  10
 2 -1.18391e+06 220  360 220   0
 3  1.26575e+06 230 1940 230   0
 4      -242188  50  700  50   0
 5       781250 150  320 150   0
 6      -781250 150  320 150   0
 7       242188  50  700  50   0
 8      -162338  30  740  30   0
 9      48828.1  10   70  10   0
10      66137.6  20   50  20   0
11      -154321  30   30  30   0

# Format of ADC events:
# id num dwell delay freqPPM phasePPM freq phase phase_id
# ..  ..    ns    us     ppm  rad/MHz   Hz   rad       ..
[ADC]
1 64 5000 150 0 0 0 0 0

# Sequence Shapes
[SHAPES]

shape_id 1
num_samples 3000
9.09541581e-11
2.42010007e-09
1.092556e-08
2.8911115e-08
5.8551225e-08
1.00528082e-07
1.53723142e-07
2.14975621e-07
2.78918787e-07
3.3790295e-07
3.82011889e-07
3.99177043e-07
3.75391274e-07
2.95021347e-07
1.41215597e-07
1.03599462e-07
4.5714243e-07
9.36631562e-07
1.55808426e-06
2.33557722e-06
3.28048494e-06
4.40071544e-06
5.69996355e-06
7.1770026e-06
8.82503561e-06
1.0631127e-05
1.25757355e-05
1.46323666e-05
1.6767364e-05
1.89398537e-05
2.11018563e-05
2.31985754e-05
2.5168873e-05
2.69459319e-05
2.84581089e-05
2.96299726e-05
3.03835198e-05
3.06395579e-05
3.03192377e-05
2.93457177e-05
2.76459351e-05
2.51524578e-05
2.18053865e-05
1.75542746e-05
1.23600296e-05
6.19676016e-06
9.4647045e-07
9.0640232e-06
1.81322331e-05
2.81081684e-05
3.89286358e-05
5.05094665e-05
6.27451142e-05
7.5508594e-05
8.86517854e-05
0.000102006119
0.000115383662
0.000128578606
0.000141369165
0.00015351987
0.000164784263
0.00017490795
0.000183632007
0.000190696694
0.000195845443
0.000198829065
0.000199410138
0.000197367502
0.000192500811
0.000184635063
0.000173625046
0.000159359625
0.000141765794
0.000120812413
9.65135723e-05
6.893149e-05
3.81788908e-05
4.42079313e-06
3.21243531e-05
7.11842305e-05
0.000112432966
0.000155492227
0.000199933127
0.00024527896
0.000291008768
0.000336561735
0.000381342388
0.000424726581
0.000466068204
0.000504706579
0.000539974464
0.000571206586
0.000597748619
0.000618966496
0.000634255949
0.000643052167
0.000644839427
0.000639160582
0.000625626268
0.000603923686
0.000573824829
0.00053519401
0.00048799457
0.000432294614
0.000368271686
0.000296216246
0.000216533857
0.000129745997
3.64894188e-05
6.24859983e-05
0.000166320949
0.000274051967
0.000384618271
0.00049687015
0.00060957888
0.000721448079
0.000831126438
0.000937221726
0.00103831592
0.00113298137
0.00121979776
0.00129736975
0.0013643451
0.00141943302
0.00146142258
0.0014892009
0.00150177096
0.00149826872
0.0014779793
0.00144035212
0.00138501453
0.001311784
0.00122067835
0.00111192409
0.000985962529
0.000843453533
0.000685276838
0.000512530746
0.000326528161
0.000128789904
7.89647235e-05
0.000294830097
0.000516729121
0.000742430685
0.000969569608
0.00119566893
0.00141816434
0.0016344306
0.0018418096
0.00203763989
0.00221928729
0.00238417635
0.00252982219
0.00265386251
0.00275408922
0.00282847949
0.00287522568
0.00289276381
0.00287980027
0.00283533625
0.00275868959
0.0026495138
0.00250781378
0.00233395799
0.00212868696
0.0018931177
0.00162874393
0.00133743206
0.00102141269
0.000683267717
0.00032591297
4.74235461e-05
0.00043322764
0.000827729038
0.00122693536
0.00162666972
0.00202261156
0.00241034044
0.00278538233
0.0031432579
0.00347953239
0.00378986649
0.00407006773
0.00431614171
0.00452434265
0.00469122274
0.00481367946
0.00488900058
0.00491490595
0.00488958577
0.00481173466
0.00468058109
0.00449591163
0.00425808971
0.00396806843
0.00362739716
0.00323822166
0.00280327758
0.00232587718
0.00180988927
0.00125971238
0.000680241338
7.68273996e-05
0.000544767773
0.00117842394
0.00181771945
0.00245599336
0.00308641174
0.00370203778
0.00429590477
0.00486109142
0.00539079861
0.00587842676
0.00631765305
0.00670250757
0.00702744751
0.00728742855
0.00747797263
0.0075952311
0.00763604266
0.00759798513
0.00747942041
0.00727953198
0.00699835432
0.0066367937
0.00619663996
0.00568056892
0.00509213513
0.00443575491
0.00371667948
0.00294095845
0.00211539363
0.00124748366
0.000345359649
0.000582287506
0.00152628759
0.00247707865
0.00342480077
0.00435939534
0.00527070859
0.00614859869
0.00698304493
0.00776425821
0.00848279136
0.00912964826
0.00969639051
0.0101752403
0.0105591786
0.0108420369
0.0110185822
0.0110845935
0.0110369288
0.0108735822
0.0105937299
0.0101977644
0.0096873158
0.00906526141
0.00833572074
0.00750403791
0.00657675022
0.00556154319
0.00446719245
0.00330349258
0.00208117372
0.000811806287
0.000492305174
0.00181823813
0.00315257718
0.00448154695
0.00579115141
0.00706731837
0.00829604756
0.0094635608
0.0105564528
0.0115618407
0.0124675112
0.0132620626
0.0139350422
0.0144770744
0.0148799812
0.0151368917
0.0152423387
0.0151923439
0.0149844874
0.0146179622
0.0140936125
0.0134139555
0.012583185
0.0116071578
0.0104933618
0.00925086619
0.00789025425
0.00642353833
0.00486405843
0.00322636478
0.00152608558
0.000220219188
0.0019952162
0.00378096832
0.00555911337
0.00731105049
0.00901813222
0.0106618603
0.012224083
0.0136871928
0.0150343202
0.0162495244
0.0173179766
0.0182261341
0.0189619045
0.0195147967
0.0198760571
0.0200387903
0.0199980618
0.019750981
0.0192967644
0.0186367781
0.0177745568
0.0167158012
0.0154683523
0.0140421425
0.0124491236
0.0107031732
0.00881997796
0.00681689757
0.00471280757
0.00252792467
0.000283614897
0.00199781311
0.00429332791
0.00657940585
0.0088322704
0.0110281375
0.0131434647
0.0151552014
0.017041037
0.0187796461
0.020350925
0.0217362205
0.0229185454
0.0238827801
0.0246158571
0.0251069269
0.0253475021
0.0253315794
0.0250557367
0.0245192045
0.0237239105
0.0226744959
0.0213783043
0.0198453413
0.0180882058
0.0161219928
0.0139641698
0.011634425
0.00915449163
0.0065479476
0.00383999356
0.00105721096
0.00177269745
0.00462118229
0.00745913456
0.0102571821
0.0129859928
0.0156165806
0.0181206126
0.0204707122
0.0226407564
0.024606164
0.0263441702
0.0278340862
0.0290575401
0.0299986964
0.0306444512
0.0309846017
0.0310119867
0.0307225976
0.0301156568
0.0291936641
0.0279624087
0.0264309471
0.0246115464
0.0225195939
0.020173472
0.0175944017
0.0148062532
0.0118353276
0.00871011066
0.00546100061
0.0021200133
0.00127953297
0.00470334961
0.00811652361
0.0114838737
0.0147703132
0.0179412156
0.0209627791
0.0238023869
0.0264289583
0.0288132875
0.0309283666
0.0327496891
0.0342555294
0.0354271975
0.0362492633
0.0367097504
0.0368002942
0.0365162656
0.0358568553
0.0348251204
0.0334279906
0.0316762333
0.0295843797
0.0271706101
0.0244565998
0.0214673279
0.0182308489
0.0147780312
0.0111422624
0.00735912705
0.00346605752
0.00049803723
0.0044931616
0.00847863826
0.0124135238
0.0162570306
0.0199689513
0.0235100807
0.0268426305
0.0299306338
0.032740333
0.0352405491
0.0374030264
0.0392027502
0.0406182332
0.0416317675
0.0422296393
0.042402304
0.0421445192
0.0414554338
0.0403386322
0.0388021328
0.0368583399
0.0345239503
0.0318198138
0.0287707493
0.0254053191
0.0217555612
0.0178566843
0.0137467274
0.00946618685
0.00505761559
0.000565197841
0.00396569636
0.00848897215
0.0129582817
0.0173275022
0.0215512145
0.0255851785
0.0293867989
0.0329155776
0.0361335467
0.0390056794
0.0415002712
0.0435892912
0.0452486959
0.046458704
0.0472040294
0.0474740681
0.0472630375
0.0465700675
0.0453992399
0.043759577
0.041664979
0.0391341098
0.0361902329
0.0328609985
0.029178183
0.0251773853
0.0208976802
0.0163812348
0.0116728897
0.00681971045
0.00187051311
0.00312463083
0.00811490549
0.0130492721
0.0178769957
0.0225481713
0.0270142447
0.031228521
0.0351466578
0.0387271349
0.0419316984
0.0447257722
0.0470788332
0.0489647474
0.0503620598
0.0512542396
0.0516298728
0.0514828045
0.050812226
0.0496227071
0.0479241721
0.0457318211
0.0430659947
0.0399519856
0.0364197974
0.0325038537
0.02824266
0.0236784212
0.0188566197
0.0138255579
0.00863586851
0.00334000013
0.00200831905
0.00735463236
0.0126443154
0.0178231407
0.0228378398
0.0276366581
0.0321698948
0.036390424
0.0402541904
0.0437206746
0.0467533233
0.0493199391
0.0513930263
0.0529500888
0.053973877
0.05445258
0.0543799628
0.0537554444
0.0525841187
0.0508767151
0.0486495007
0.045924125
0.0427274072
0.0390910703
0.0350514221
0.0306489892
0.0259281049
0.0209364575
0.0157246024
0.0103454432
0.00485368754
0.000694716724
0.00624315945
0.0117349539
0.0171139244
0.0223249887
0.027314731
0.0320319576
0.0364282298
0.0404583694
0.0440809303
0.0472586317
0.0499587483
0.052153453
0.0538201093
0.0549415088
0.055506053
0.0555078762
0.0549469081
0.053828877
0.0521652506
0.0499731187
0.0472750153
0.0440986851
0.0404767941
0.0364465898
0.0320495128
0.0273307649
0.0223388371
0.0171250044
0.0117427906
0.00624741035
0.000695193389
0.00485700244
0.0103523833
0.0157348107
0.0209493846
0.0259430145
0.0306649692
0.035067403
0.0391058493
0.0427396796
0.0459325202
0.048652625
0.0508731976
0.0525726622
0.0537348782
0.0543492974
0.0544110627
0.0539210452
0.0528858227
0.0513175967
0.0492340506
0.046658151
0.0436178929
0.040145993
0.0362795334
0.0320595609
0.0275306445
0.0227403977
0.0177389694
0.01257851
0.00731261754
0.00199577032
0.00331724771
0.00857192313
0.0137145844
0.0186929618
0.0234567315
0.0279580355
0.0321519744
0.0359970669
0.0394556699
0.0424943576
0.0450842527
0.0472013089
0.0488265394
0.0499461916
0.0505518642
0.0506405675
0.0502147244
0.0492821149
0.0478557622
0.0459537645
0.0435990725
0.0408192166
0.0376459857
0.0341150632
0.0302656225
0.0261398875
0.021782663
0.0172408402
0.0125628828
0.00779829893
0.00299710634
0.00179070565
0.00651570949
0.0111295633
0.0155855192
0.0198389111
0.0238476157
0.0275724834
0.0309777328
0.0340313059
0.0367051801
0.0389756335
0.0408234612
0.04223414
0.0431979415
0.0437099906
0.0437702706
0.0433835752
0.0425594077
0.0413118287
0.039659256
0.0376242168
0.0352330584
0.0325156173
0.0295048547
0.0262364595
0.0227484251
0.0190806052
0.0152742532
0.0113715499
0.00741512704
0.00344758974
0.000488955061
0.00435335953
0.00810588003
0.0117086012
0.0151258347
0.0183244875
0.0212743975
0.0239486303
0.0263237362
0.0283799648
0.0301014328
0.031476247
0.032496578
0.0331586871
0.0334629051
0.033413563
0.0330188784
0.0322907967
0.031244791
0.0298996233
0.0282770699
0.0264016143
0.0243001132
0.0220014378
0.0195360965
0.016935843
0.0142332753
0.0114614297
0.00865337566
0.00584181607
0.00305869772
0.000334836783
0.00230043618
0.00481960768
0.00719728514
0.00941046979
0.0114387954
0.0132647302
0.0148737401
0.0162544109
0.0173985293
0.0183011206
0.0189604454
0.0193779528
0.0195581936
0.0195086937
0.0192397899
0.0187644309
0.0180979462
0.0172577861
0.0162632367
0.0151351134
0.0138954383
0.0125671043
0.0111735319
0.00973832211
0.00828491187
0.00683623462
0.0054143922
0.00404034172
0.00273360179
0.00151198209
0.000391339917
0.000614633095
0.00149459112
0.0022396788
0.00284363839
0.00330287803
0.0036165002
0.00378628988
0.00381666271
0.00371457375
0.00348938809
0.0031527151
0.00271820854
0.00220133529
0.00161911583
0.000989840082
0.000332762517
0.000332219213
0.000984897669
0.00160509633
0.00217301278
0.00266955954
0.00307669761
0.00337775778
0.00355774525
0.00360362265
0.00350456755
0.00325220012
0.00284077755
0.00226735188
0.00153188856
0.000637343396
0.000410303826
0.00160206016
0.00292597538
0.00436724293
0.00590834526
0.00752924234
0.00920760154
0.0109190664
0.0126375614
0.0143356292
0.015984796
0.0175559617
0.0190198083
0.0203472228
0.0215097285
0.0224799195
0.0232318917
0.0237416653
0.0239875928
0.0239507459
0.0236152773
0.0229687501
0.022002431
0.0207115419
0.0190954664
0.0171579063
0.0149069858
0.0123553003
0.00951990808
0.00642226337
0.00308809038
0.000452801643
0.00416676123
0.00801659395
0.0119619154
0.0159595553
0.019964008
0.0239279259
0.0278026498
0.031538771
0.0350867187
0.038397366
0.0414226479
0.0441161828
0.0464338919
0.0483346066
0.049780658
0.0507384398
0.0511789375
0.0510782169
0.0504178642
0.0491853722
0.047374466
0.0449853628
0.0420249618
0.0385069596
0.0344518876
0.0298870709
0.0248465044
0.0193706488
0.0135061447
0.00730544703
0.000826382841
0.00586836538
0.0127118454
0.0196334854
0.026559802
0.0334151599
0.0401225746
0.046604551
0.0527839474
0.0585848575
0.0639334988
0.0687590987
0.0729947666
0.076578344
0.0794532191
0.0815690997
0.0828827308
0.0833585507
0.0829692747
0.0816963996
0.0795306206
0.0764721544
0.072530963
0.0677268739
0.0620895917
0.0556586008
0.0484829563
0.0406209642
0.0321397515
0.0231147295
0.0136289532
0.00377238289
0.00635894689
0.0166638424
0.0270369422
0.037369776
0.047551878
0.0574719473
0.0670190394
0.0760837795
0.0845595827
0.0923438677
0.0993392524
0.105454715
0.11060671
0.114720225
0.11772976
0.119580234
0.12022778
0.119640449
0.117798786
0.114696287
0.110339726
0.104749336
0.0979588608
0.0900154467
0.0809793987
0.0709237842
0.0599338933
0.0481065573
0.0355493297
0.0223795375
0.00872320941
0.00528610787
0.0195086365
0.0337997435
0.0480113933
0.0619936623
0.0755963009
0.088670325
0.101069623
0.112652557
0.123283549
0.132834623
0.141186895
0.148231992
0.153873381
0.158027595
0.160625338
0.161612459
0.160950782
0.158618776
0.154612058
0.14894373
0.141644523
0.132762768
0.122364168
0.110531394
0.0973634829
0.082975059
0.0674953767
0.0510671921
0.0338454742
0.015995967
0.00230638533
0.020879134
0.0395341272
0.0580793995
0.0763211297
0.0940656486
0.111121474
0.127301356
0.142424303
0.156317576
0.168818625
0.179776946
0.189055832
0.196534015
0.202107164
0.205689219
0.207213567
0.206634015
0.203925573
0.199085018
0.192131239
0.183105357
0.172070612
0.159112009
0.144335744
0.127868385
0.109855839
0.0904620979
0.0698677722
0.0482684403
0.0258728113
0.00290072806
0.020418974
0.0438507303
0.0671546118
0.0900887662
0.112411912
0.133885859
0.154278029
0.173363952
0.190929708
0.206774293
0.220711877
0.232573932
0.242211214
0.249495556
0.254321476
0.256607556
0.256297603
0.253361544
0.247796069
0.239625004
0.228899401
0.215697345
0.20012348
0.18230825
0.162406862
0.140597981
0.117082159
0.0920800215
0.0658302246
0.0385871946
0.0106186809
0.0177968607
0.0463730266
0.0748183387
0.102839205
0.130142934
0.156440782
0.181450983
0.204901752
0.226534212
0.246105223
0.263390081
0.278185053
0.29030972
0.299609117
0.305955615
0.309250555
0.309425588
0.306443726
0.300300069
0.291022212
0.278670323
0.263336871
0.245146035
0.224252757
0.200841483
0.175124575
0.147340417
0.117751236
0.086640647
0.0543109557
0.0210802334
0.0127207977
0.0467520449
0.0806674563
0.114118529
0.14675788
0.178242842
0.208239043
0.236423949
0.262490303
0.286149454
0.307134526
0.325203383
0.340141385
0.351763868
0.359918356
0.364486452
0.365385397
0.362569276
0.356029859
0.345797055
0.331938978
0.314561623
0.293808139
0.269857717
0.242924099
0.213253703
0.181123404
0.146837975
0.110727218
0.0731428024
0.0344548579
0.00495166264
0.0446808043
0.0843295807
0.123492055
0.161763486
0.198744506
0.234045275
0.267289578
0.298118821
0.326195874
0.35120874
0.372873981
0.3909399
0.405189405
0.415442554
0.421558739
0.423438476
0.421024796
0.414304201
0.403307193
0.388108339
0.368825894
0.345620965
0.31869623
0.288294213
0.25469514
0.218214379
0.179199509
0.13802702
0.095098698
0.0508377077
0.00568443428
0.0399078953
0.0854777565
0.130559995
0.174690569
0.217411324
0.25827474
0.29684861
0.332720603
0.365502654
0.394835145
0.420390821
0.441878411
0.459045904
0.471683448
0.479625838
0.482754567
0.480999412
0.474339531
0.462804071
0.446472258
0.425472974
0.399983828
0.370229707
0.33648084
0.299050379
0.258291512
0.214594156
0.168381237
0.120104611
0.0702406469
0.0192855337
0.0322496549
0.0838440856
0.134972428
0.185110204
0.233739166
0.280352648
0.324460847
0.365595958
0.403317124
0.437215151
0.466916927
0.492089498
0.512443771
0.527737786
0.53777953
0.542429255
0.541601285
0.535265269
0.523446882
0.506227955
0.483746033
0.456193346
0.423815229
0.386907976
0.345816154
0.300929413
0.252678803
0.201532649
0.14799201
0.0925857716
0.0358654258
0.0216004207
0.0792317488
0.136442984
0.19264895
0.247270854
0.299742253
0.349514924
0.39606459
0.438896442
0.477550382
0.51160596
0.540686921
0.564465341
0.582665288
0.595065968
0.601504341
0.601877145
0.596142329
0.584319872
0.566491957
0.542802526
0.513456189
0.478716503
0.438903647
0.394391495
0.345604121
0.293011771
0.237126341
0.178496392
0.117701769
0.0553478661
0.00794041397
0.0715249214
0.134760704
0.197002553
0.257611597
0.315961862
0.371446741
0.423485305
0.47152838
0.515064347
0.553624577
0.586788463
0.614187992
0.635511801
0.650508675
0.658990451
0.660834297
0.655984325
0.644452538
0.626319083
0.601731808
0.570905127
0.534118192
0.491712398
0.444088239
0.391701532
0.335059072
0.274713723
0.211259029
0.145323365
0.0775637174
0.00865911957
0.0606961548
0.129799601
0.197947607
0.264442631
0.32860035
0.389756709
0.447274804
0.500551517
0.549023845
0.592174844
0.629539141
0.660707935
0.685333456
0.703132818
0.713891221
0.717464486
0.713780871
0.702842157
0.684723991
0.659575472
0.627617988
0.589143305
0.544510932
0.494144775
0.438529121
0.378203989
0.313759882
0.245832004
0.175093992
0.102251227
0.0280337866
0.0468108849
0.121525517
0.195350689
0.267532565
0.337330602
0.404025165
0.466924952
0.525374173
0.578759394
0.626515975
0.668134045
0.703163943
0.731221059
0.751990045
0.765228325
0.770768888
0.76852231
0.758478002
0.740704654
0.71534987
0.682638998
0.642873162
0.596426509
0.543742702
0.485330689
0.421759782
0.353654108
0.281686472
0.206571701
0.129059531
0.0499271043
0.030028831
0.109999966
0.189174619
0.266745989
0.3419204
0.413925432
0.482017879
0.545491428
0.603684
0.655984666
0.701840063
0.740760253
0.772323951
0.796183077
0.812066577
0.819783471
0.819225095
0.810366515
0.793267083
0.76807015
0.735001904
0.694369373
0.646557585
0.592025931
0.53130375
0.464985187
0.393723371
0.318223977
0.239238216
0.15755535
0.0739947867
0.0106021632
0.0953807733
0.17948156
0.262049019
0.342240343
0.419234052
0.492238422
0.560499648
0.623309641
0.680013385
0.730015782
0.772787901
0.807872578
0.834889298
0.853538313
0.863603952
0.864957077
0.857556675
0.841450543
0.816775082
0.783754181
0.742697206
0.69399611
0.638121698
0.575619069
0.507102295
0.433248372
0.354790523
0.272510894
0.187232745
0.0998121853
0.0111295626
0.0779194299
0.166432823
0.25351153
0.338268506
0.419837806
0.497383454
0.570108033
0.637260905
0.698145974
0.752128917
0.798643806
0.837199048
0.867382583
0.888866289
0.901409536
0.90486187
0.899164771
0.884352487
0.860551924
0.82798159
0.786949602
0.73785078
0.681162843
0.617441756
0.547316268
0.471481693
0.390692999
0.305757273
0.217525635
0.126884688
0.0347475826
0.0579552095
0.150285316
0.241305993
0.33009165
0.415737296
0.497367782
0.574146774
0.645285339
0.710050077
0.767770698
0.817846974
0.859754997
0.893052664
0.917384351
0.93248471
0.938181549
0.934397786
0.921152418
0.898560527
0.866832307
0.826271109
0.777270549
0.72031068
0.655953277
0.584836291
0.507667499
0.42521745
0.338311741
0.247822734
0.154660768
0.0597649752
0.0359062122
0.131384773
0.225702919
0.317902934
0.40704693
0.49222641
0.572571559
