# Pulseq sequence file
# Created by MATLAB mr toolbox

[VERSION]
major 1
minor 5
revision 1

[DEFINITIONS]
AdcRasterTime 1e-07 
BlockDurationRaster 1e-05 
FOV 0.22 0.22 0.1065 
GradientRasterTime 1e-05 
Name epi 
RadiofrequencyRasterTime 1e-06 
ReadoutOversamplingFactor 2 
ReceiverGainHigh 1 
SliceGap 0.0015 
SlicePositions -0.05175 -0.04725 -0.04275 -0.03825 -0.03375 -0.02925 -0.02475 -0.02025 -0.01575 -0.01125 -0.00675 -0.00225 0.00225 0.00675 0.01125 0.01575 0.02025 0.02475 0.02925 0.03375 0.03825 0.04275 0.04725 0.05175 
SliceThickness 0.003 
TargetGriddedSamples 128 
TotalDuration 2.10165 
TrapezoidGriddingParameters 9e-05 0.00052 9e-05 3.6e-05 0.0006272 

# Format of blocks:
# NUM DUR RF  GX  GY  GZ  ADC  EXT
[BLOCKS]
   1 2349   0   0   0   0  0  0
   2   0   0   0   0   0  0  1
   3 912   1   0   0   1  0  0
   4 226   2   0   0   2  0  2
   5  78   0   3   0   4  0  4
   6   0   0   0   0   0  0  7
   7  70   0   5   0   0  1  0
   8   0   0   0   0   0  0 10
   9  70   0   6   0   0  1  0
  10   0   0   0   0   0  0 11
  11  70   0   5   0   0  1  0
  12  78   0   0   7   0  0 13
  13 326   0   0   0   0  0  0
  14  70   0   6   8   9  1 16
  15  70   0   5  10  11  1 18
  16  70   0   6  10  12  1 16
  17  70   0   5  10  11  1 18
  18  70   0   6  10  12  1 16
  19  70   0   5  10  11  1 18
  20  70   0   6  10  12  1 16
  21  70   0   5  10  11  1 18
  22  70   0   6  10  12  1 16
  23  70   0   5  10  11  1 18
  24  70   0   6  10  12  1 16
  25  70   0   5  10  11  1 18
  26  70   0   6  10  12  1 16
  27  70   0   5  10  11  1 18
  28  70   0   6  10  12  1 16
  29  70   0   5  10  11  1 18
  30  70   0   6  10  12  1 16
  31  70   0   5  10  11  1 18
  32  70   0   6  10  12  1 16
  33  70   0   5  10  11  1 18
  34  70   0   6  10  12  1 16
  35  70   0   5  10  11  1 18
  36  70   0   6  10  12  1 16
  37  70   0   5  10  11  1 18
  38  70   0   6  10  12  1 16
  39  70   0   5  10  11  1 18
  40  70   0   6  10  12  1 16
  41  70   0   5  10  11  1 18
  42  70   0   6  10  12  1 16
  43  70   0   5  10  11  1 18
  44  70   0   6  10  12  1 16
  45  70   0   5  10  11  1 18
  46  70   0   6  10  12  1 16
  47  70   0   5  10  11  1 18
  48  70   0   6  10  12  1 16
  49  70   0   5  10  11  1 18
  50  70   0   6  10  12  1 16
  51  70   0   5  10  11  1 18
  52  70   0   6  10  12  1 16
  53  70   0   5  10  11  1 18
  54  70   0   6  10  12  1 16
  55  70   0   5  10  11  1 18
  56  70   0   6  10  12  1 16
  57  70   0   5  10  11  1 18
  58  70   0   6  10  12  1 16
  59  70   0   5  10  11  1 18
  60  70   0   6  10  12  1 16
  61  70   0   5  10  11  1 18
  62  70   0   6  10  12  1 16
  63  70   0   5  10  11  1 18
  64  70   0   6  10  12  1 16
  65  70   0   5  10  11  1 18
  66  70   0   6  10  12  1 16
  67  70   0   5  10  11  1 18
  68  70   0   6  10  12  1 16
  69  70   0   5  10  11  1 18
  70  70   0   6  10  12  1 16
  71  70   0   5  10  11  1 18
  72  70   0   6  10  12  1 16
  73  70   0   5  10  11  1 18
  74  70   0   6  10  12  1 16
  75  70   0   5  10  11  1 18
  76  70   0   6  10  12  1 16
  77  70   0   5  13  14  1 18
  78   0   0   0   0   0  0 19
  79 2349   0   0   0   0  0  0
  80 912   1   0   0   1  0  0
  81 226   3   0   0   2  0  2
  82  78   0   3   0   4  0  4
  83   0   0   0   0   0  0  7
  84  70   0   5   0   0  1  0
  85   0   0   0   0   0  0 10
  86  70   0   6   0   0  1  0
  87   0   0   0   0   0  0 11
  88  70   0   5   0   0  1  0
  89  78   0   0   7   0  0 13
  90 326   0   0   0   0  0  0
  91  70   0   6   8   9  1 16
  92  70   0   5  10  11  1 18
  93  70   0   6  10  12  1 16
  94  70   0   5  10  11  1 18
  95  70   0   6  10  12  1 16
  96  70   0   5  10  11  1 18
  97  70   0   6  10  12  1 16
  98  70   0   5  10  11  1 18
  99  70   0   6  10  12  1 16
 100  70   0   5  10  11  1 18
 101  70   0   6  10  12  1 16
 102  70   0   5  10  11  1 18
 103  70   0   6  10  12  1 16
 104  70   0   5  10  11  1 18
 105  70   0   6  10  12  1 16
 106  70   0   5  10  11  1 18
 107  70   0   6  10  12  1 16
 108  70   0   5  10  11  1 18
 109  70   0   6  10  12  1 16
 110  70   0   5  10  11  1 18
 111  70   0   6  10  12  1 16
 112  70   0   5  10  11  1 18
 113  70   0   6  10  12  1 16
 114  70   0   5  10  11  1 18
 115  70   0   6  10  12  1 16
 116  70   0   5  10  11  1 18
 117  70   0   6  10  12  1 16
 118  70   0   5  10  11  1 18
 119  70   0   6  10  12  1 16
 120  70   0   5  10  11  1 18
 121  70   0   6  10  12  1 16
 122  70   0   5  10  11  1 18
 123  70   0   6  10  12  1 16
 124  70   0   5  10  11  1 18
 125  70   0   6  10  12  1 16
 126  70   0   5  10  11  1 18
 127  70   0   6  10  12  1 16
 128  70   0   5  10  11  1 18
 129  70   0   6  10  12  1 16
 130  70   0   5  10  11  1 18
 131  70   0   6  10  12  1 16
 132  70   0   5  10  11  1 18
 133  70   0   6  10  12  1 16
 134  70   0   5  10  11  1 18
 135  70   0   6  10  12  1 16
 136  70   0   5  10  11  1 18
 137  70   0   6  10  12  1 16
 138  70   0   5  10  11  1 18
 139  70   0   6  10  12  1 16
 140  70   0   5  10  11  1 18
 141  70   0   6  10  12  1 16
 142  70   0   5  10  11  1 18
 143  70   0   6  10  12  1 16
 144  70   0   5  10  11  1 18
 145  70   0   6  10  12  1 16
 146  70   0   5  10  11  1 18
 147  70   0   6  10  12  1 16
 148  70   0   5  10  11  1 18
 149  70   0   6  10  12  1 16
 150  70   0   5  10  11  1 18
 151  70   0   6  10  12  1 16
 152  70   0   5  10  11  1 18
 153  70   0   6  10  12  1 16
 154  70   0   5  13  14  1 18
 155   0   0   0   0   0  0 19
 156 2349   0   0   0   0  0  0
 157 912   1   0   0   1  0  0
 158 226   4   0   0   2  0  2
 159  78   0   3   0   4  0  4
 160   0   0   0   0   0  0  7
 161  70   0   5   0   0  1  0
 162   0   0   0   0   0  0 10
 163  70   0   6   0   0  1  0
 164   0   0   0   0   0  0 11
 165  70   0   5   0   0  1  0
 166  78   0   0   7   0  0 13
 167 326   0   0   0   0  0  0
 168  70   0   6   8   9  1 16
 169  70   0   5  10  11  1 18
 170  70   0   6  10  12  1 16
 171  70   0   5  10  11  1 18
 172  70   0   6  10  12  1 16
 173  70   0   5  10  11  1 18
 174  70   0   6  10  12  1 16
 175  70   0   5  10  11  1 18
 176  70   0   6  10  12  1 16
 177  70   0   5  10  11  1 18
 178  70   0   6  10  12  1 16
 179  70   0   5  10  11  1 18
 180  70   0   6  10  12  1 16
 181  70   0   5  10  11  1 18
 182  70   0   6  10  12  1 16
 183  70   0   5  10  11  1 18
 184  70   0   6  10  12  1 16
 185  70   0   5  10  11  1 18
 186  70   0   6  10  12  1 16
 187  70   0   5  10  11  1 18
 188  70   0   6  10  12  1 16
 189  70   0   5  10  11  1 18
 190  70   0   6  10  12  1 16
 191  70   0   5  10  11  1 18
 192  70   0   6  10  12  1 16
 193  70   0   5  10  11  1 18
 194  70   0   6  10  12  1 16
 195  70   0   5  10  11  1 18
 196  70   0   6  10  12  1 16
 197  70   0   5  10  11  1 18
 198  70   0   6  10  12  1 16
 199  70   0   5  10  11  1 18
 200  70   0   6  10  12  1 16
 201  70   0   5  10  11  1 18
 202  70   0   6  10  12  1 16
 203  70   0   5  10  11  1 18
 204  70   0   6  10  12  1 16
 205  70   0   5  10  11  1 18
 206  70   0   6  10  12  1 16
 207  70   0   5  10  11  1 18
 208  70   0   6  10  12  1 16
 209  70   0   5  10  11  1 18
 210  70   0   6  10  12  1 16
 211  70   0   5  10  11  1 18
 212  70   0   6  10  12  1 16
 213  70   0   5  10  11  1 18
 214  70   0   6  10  12  1 16
 215  70   0   5  10  11  1 18
 216  70   0   6  10  12  1 16
 217  70   0   5  10  11  1 18
 218  70   0   6  10  12  1 16
 219  70   0   5  10  11  1 18
 220  70   0   6  10  12  1 16
 221  70   0   5  10  11  1 18
 222  70   0   6  10  12  1 16
 223  70   0   5  10  11  1 18
 224  70   0   6  10  12  1 16
 225  70   0   5  10  11  1 18
 226  70   0   6  10  12  1 16
 227  70   0   5  10  11  1 18
 228  70   0   6  10  12  1 16
 229  70   0   5  10  11  1 18
 230  70   0   6  10  12  1 16
 231  70   0   5  13  14  1 18
 232   0   0   0   0   0  0 19
 233 2349   0   0   0   0  0  0
 234 912   1   0   0   1  0  0
 235 226   5   0   0   2  0  2
 236  78   0   3   0   4  0  4
 237   0   0   0   0   0  0  7
 238  70   0   5   0   0  1  0
 239   0   0   0   0   0  0 10
 240  70   0   6   0   0  1  0
 241   0   0   0   0   0  0 11
 242  70   0   5   0   0  1  0
 243  78   0   0   7   0  0 13
 244 326   0   0   0   0  0  0
 245  70   0   6   8   9  1 16
 246  70   0   5  10  11  1 18
 247  70   0   6  10  12  1 16
 248  70   0   5  10  11  1 18
 249  70   0   6  10  12  1 16
 250  70   0   5  10  11  1 18
 251  70   0   6  10  12  1 16
 252  70   0   5  10  11  1 18
 253  70   0   6  10  12  1 16
 254  70   0   5  10  11  1 18
 255  70   0   6  10  12  1 16
 256  70   0   5  10  11  1 18
 257  70   0   6  10  12  1 16
 258  70   0   5  10  11  1 18
 259  70   0   6  10  12  1 16
 260  70   0   5  10  11  1 18
 261  70   0   6  10  12  1 16
 262  70   0   5  10  11  1 18
 263  70   0   6  10  12  1 16
 264  70   0   5  10  11  1 18
 265  70   0   6  10  12  1 16
 266  70   0   5  10  11  1 18
 267  70   0   6  10  12  1 16
 268  70   0   5  10  11  1 18
 269  70   0   6  10  12  1 16
 270  70   0   5  10  11  1 18
 271  70   0   6  10  12  1 16
 272  70   0   5  10  11  1 18
 273  70   0   6  10  12  1 16
 274  70   0   5  10  11  1 18
 275  70   0   6  10  12  1 16
 276  70   0   5  10  11  1 18
 277  70   0   6  10  12  1 16
 278  70   0   5  10  11  1 18
 279  70   0   6  10  12  1 16
 280  70   0   5  10  11  1 18
 281  70   0   6  10  12  1 16
 282  70   0   5  10  11  1 18
 283  70   0   6  10  12  1 16
 284  70   0   5  10  11  1 18
 285  70   0   6  10  12  1 16
 286  70   0   5  10  11  1 18
 287  70   0   6  10  12  1 16
 288  70   0   5  10  11  1 18
 289  70   0   6  10  12  1 16
 290  70   0   5  10  11  1 18
 291  70   0   6  10  12  1 16
 292  70   0   5  10  11  1 18
 293  70   0   6  10  12  1 16
 294  70   0   5  10  11  1 18
 295  70   0   6  10  12  1 16
 296  70   0   5  10  11  1 18
 297  70   0   6  10  12  1 16
 298  70   0   5  10  11  1 18
[RF]
1       129.71 1 2 3 4000 100 0 0 -424.504 10.6689 s
2       1004.9 4 5 0 1000 130 0 0 -34500 216.77 e
3       1004.9 4 5 0 1000 130 0 0 -31500 197.92 e
4       1004.9 4 5 0 1000 130 0 0 -28500 179.071 e
5       1004.9 4 5 0 1000 130 0 0 -25500 160.221 e
6       1004.9 4 5 0 1000 130 0 0 -22500 141.372 e
7       1004.9 4 5 0 1000 130 0 0 -19500 122.522 e
8       1004.9 4 5 0 1000 130 0 0 -16500 103.673 e
9       1004.9 4 5 0 1000 130 0 0 -13500 84.823 e
10       1004.9 4 5 0 1000 130 0 0 -10500 65.9734 e
11       1004.9 4 5 0 1000 130 0 0 -7500 47.1239 e
12       1004.9 4 5 0 1000 130 0 0 -4500 28.2743 e
13       1004.9 4 5 0 1000 130 0 0 -1500 9.42478 e
14       1004.9 4 5 0 1000 130 0 0 1500 -9.42478 e
15       1004.9 4 5 0 1000 130 0 0 4500 -28.2743 e
16       1004.9 4 5 0 1000 130 0 0 7500 -47.1239 e
17       1004.9 4 5 0 1000 130 0 0 10500 -65.9734 e
18       1004.9 4 5 0 1000 130 0 0 13500 -84.823 e
19       1004.9 4 5 0 1000 130 0 0 16500 -103.673 e
20       1004.9 4 5 0 1000 130 0 0 19500 -122.522 e
21       1004.9 4 5 0 1000 130 0 0 22500 -141.372 e
22       1004.9 4 5 0 1000 130 0 0 25500 -160.221 e
23       1004.9 4 5 0 1000 130 0 0 28500 -179.071 e
24       1004.9 4 5 0 1000 130 0 0 31500 -197.92 e
25       1004.9 4 5 0 1000 130 0 0 34500 -216.77 e

# Format of arbitrary gradients:
#   time_shape_id of 0 means default timing (stepping with grad_raster starting at 1/2 of grad_raster)
# id amplitude first last amp_shape_id time_shape_id delay
# ..      Hz/m  Hz/m Hz/m        ..         ..          us
[GRADIENTS]
8     -75757.6            0     -75757.6 6 7 660
9      -138889            0      -138889 6 8 660
10     -75757.6     -75757.6     -75757.6 9 10 0
11      -138889      -138889       138889 11 12 0
12       138889       138889      -138889 13 12 0
13     -75757.6     -75757.6            0 14 7 0
14      -138889      -138889            0 14 15 0

# Format of trapezoid gradients:
# id amplitude rise flat fall delay
# ..      Hz/m   us   us   us    us
[TRAP]
 1  1.35135e+06 250  490 250 8130
 2       666667 130 2000 130   0
 3       869875 170    0 170 440
 4 -1.33962e+06 250  280 250   0
 5      -484848  90  520  90   0
 6       484848  90  520  90   0
 7       190418  40  700  40   0

# Format of ADC events:
# id num dwell delay freqPPM phasePPM freq phase phase_id
# ..  ..    ns    us     ppm  rad/MHz   Hz   rad       ..
[ADC]
1 128 4900 36 0 0 0 0 0

# Format of extension lists:
# id type ref next_id
# next_id of 0 terminates the list
# Extension list is followed by extension specifications
[EXTENSIONS]
1 1 1 0
2 3 1 0
3 1 2 0
4 1 3 3
5 1 4 0
6 1 5 5
7 1 6 6
8 1 6 0
9 1 7 8
10 1 8 9
11 1 9 6
12 1 10 8
13 1 11 12
14 4 1 0
15 1 7 14
16 1 8 15
17 1 4 14
18 1 5 17
19 4 2 0
20 4 3 0

# Extension specification for digital output and input triggers:
# id type channel delay (us) duration (us)
extension TRIGGERS 3
1 1 1 0 100

# Extension specification for setting labels:
# id set labelstring
extension LABELSET 1
1 0 SLC
2 1 NAV
3 32 LIN
4 1 REV
5 1 SEG
6 0 AVG
7 0 REV
8 0 SEG
9 1 AVG
10 -1 LIN
11 0 NAV

# Extension specification for increasing labels:
# id inc labelstring
extension LABELINC 4
1 1 LIN
2 1 SLC
3 1 REP

# Sequence Shapes
[SHAPES]

shape_id 1
num_samples 800
0.000119120081
0.000124624967
0.000130369487
0.000136363358
0.000142616654
0.000149139823
0.0001559437
0.000163039513
0.000170438904
0.000178153937
0.000186197112
0.000194581382
0.000203320166
0.00021242736
0.00022191736
0.000231805069
0.000242105919
0.000252835884
0.0002640115
0.000275649877
0.000287768723
0.000300386355
0.000313521726
0.000327194434
0.000341424751
0.000356233634
0.000371642753
0.000387674506
0.000404352044
0.000421699291
0.000439740965
0.000458502604
0.000478010587
0.000498292156
0.000519375444
0.000541289499
0.000564064305
0.000587730813
0.000612320966
0.000637867722
0.000664405088
0.000691968142
0.000720593064
0.000750317164
0.000781178914
0.000813217976
0.000846475231
0.000880992814
0.000916814144
0.000953983954
0.000992548328
0.00103255473
0.00107405205
0.00111709061
0.00116172223
0.00120800026
0.00125597958
0.0013057167
0.00135726974
0.00141069849
0.00146606445
0.00152343087
0.00158286277
0.00164442703
0.00170819236
0.0017742294
0.00184261072
0.00191341089
0.00198670652
0.00206257629
0.00214110098
0.00222236356
0.00230644919
0.00239344527
0.00248344153
0.00257653
0.00267280512
0.00277236375
0.00287530525
0.00298173147
0.00309174685
0.00320545845
0.003322976
0.00344441192
0.00356988142
0.00369950248
0.00383339598
0.00397168567
0.00411449826
0.00426196348
0.00441421407
0.00457138591
0.00473361799
0.0049010525
0.00507383488
0.00525211384
0.00543604145
0.00562577314
0.00582146777
0.00602328769
0.00623139875
0.00644597039
0.00666717564
0.00689519119
0.00713019745
0.00737237856
0.00762192243
0.00787902084
0.00814386939
0.00841666765
0.00869761908
0.00898693116
0.0092848154
0.00959148737
0.00990716673
0.0102320773
0.010566447
0.010910508
0.0112644967
0.0116286537
0.012003224
0.0123884568
0.0127846057
0.0131919287
0.0136106879
0.0140411501
0.0144835865
0.0149382726
0.0154054883
0.0158855181
0.0163786509
0.0168851801
0.0174054034
0.0179396232
0.0184881462
0.0190512836
0.0196293513
0.0202226692
0.020831562
0.0214563586
0.0220973926
0.0227550015
0.0234295277
0.0241213176
0.0248307219
0.0255580956
0.0263037982
0.0270681929
0.0278516475
0.0286545335
0.0294772268
0.030320107
0.0311835578
0.0320679667
0.032973725
0.0339012277
0.0348508735
0.0358230646
0.0368182067
0.0378367089
0.0388789836
0.0399454464
0.0410365159
0.0421526139
0.0432941649
0.0444615962
0.0456553378
0.0468758221
0.048123484
0.0493987606
0.050702091
0.0520339164
0.0533946798
0.0547848258
0.0562048004
0.0576550512
0.0591360267
0.0606481764
0.0621919508
0.0637678008
0.0653761778
0.0670175334
0.0686923192
0.0704009868
0.0721439872
0.0739217708
0.0757347872
0.077583485
0.0794683115
0.0813897125
0.0833481317
0.0853440113
0.0873777909
0.0894499077
0.091560796
0.0937108871
0.0959006092
0.0981303865
0.10040064
0.102711785
0.105064235
0.107458396
0.10989467
0.112373455
0.114895142
0.117460116
0.120068756
0.122721434
0.125418517
0.128160363
0.130947322
0.133779738
0.136657945
0.139582271
0.142553033
0.145570538
0.148635087
0.151746968
0.154906461
0.158113833
0.161369342
0.164673235
0.168025746
0.171427098
0.174877503
0.178377158
0.181926248
0.185524945
0.189173409
0.192871782
0.196620195
0.200418765
0.20426759
0.208166757
0.212116335
0.216116377
0.220166922
0.224267989
0.228419583
0.23262169
0.23687428
0.241177302
0.245530691
0.24993436
0.254388206
0.258892105
0.263445914
0.268049471
0.272702594
0.27740508
0.282156707
0.286957231
0.291806388
0.296703892
0.301649437
0.306642694
0.311683312
0.316770921
0.321905124
0.327085506
0.332311627
0.337583025
0.342899215
0.34825969
0.353663918
0.359111344
0.364601392
0.370133461
0.375706925
0.381321136
0.386975423
0.392669091
0.398401419
0.404171664
0.40997906
0.415822817
0.421702118
0.427616128
0.433563983
0.439544798
0.445557665
0.451601651
0.457675799
0.463779133
0.469910648
0.47606932
0.482254102
0.488463923
0.49469769
0.500954289
0.507232582
0.51353141
0.519849594
0.526185933
0.532539203
0.538908163
0.545291548
0.551688076
0.558096445
0.564515331
0.570943395
0.577379277
0.583821599
0.590268966
0.596719967
0.603173172
0.609627136
0.616080397
0.62253148
0.628978892
0.635421129
0.641856672
0.648283987
0.65470153
0.661107744
0.66750106
0.673879898
0.68024267
0.686587775
0.692913606
0.699218546
0.705500971
0.711759248
0.717991742
0.724196808
0.730372799
0.736518061
0.74263094
0.748709776
0.754752909
0.760758676
0.766725415
0.772651463
0.778535159
0.784374843
0.790168858
0.795915549
0.801613266
0.807260363
0.812855202
0.818396148
0.823881575
0.829309865
0.834679408
0.839988604
0.845235864
0.850419607
0.855538267
0.860590291
0.865574137
0.870488278
0.875331203
0.880101417
0.884797439
0.889417807
0.893961078
0.898425827
0.902810647
0.907114154
0.911334982
0.91547179
0.919523256
0.923488085
0.927365001
0.931152758
0.934850131
0.938455922
0.941968961
0.945388102
0.948712229
0.951940255
0.955071121
0.958103795
0.96103728
0.963870605
0.966602833
0.969233059
0.971760407
0.974184037
0.976503141
0.978716944
0.980824705
0.982825719
0.984719313
0.986504852
0.988181735
0.989749397
0.991207311
0.992554983
0.993791959
0.99491782
0.995932185
0.996834712
0.997625093
0.998303062
0.998868388
0.999320879
0.999660382
0.999886781
1
1
0.999886781
0.999660382
0.999320879
0.998868388
0.998303062
0.997625093
0.996834712
0.995932185
0.99491782
0.993791959
0.992554983
0.991207311
0.989749397
0.988181735
0.986504852
0.984719313
0.982825719
0.980824705
0.978716944
0.976503141
0.974184037
0.971760407
0.969233059
0.966602833
0.963870605
0.96103728
0.958103795
0.955071121
0.951940255
0.948712229
0.945388102
0.941968961
0.938455922
0.934850131
0.931152758
0.927365001
0.923488085
0.919523256
0.91547179
0.911334982
0.907114154
0.902810647
0.898425827
0.893961078
0.889417807
0.884797439
0.880101417
0.875331203
0.870488278
0.865574137
0.860590291
0.855538267
0.850419607
0.845235864
0.839988604
0.834679408
0.829309865
0.823881575
0.818396148
0.812855202
0.807260363
0.801613266
0.795915549
0.790168858
0.784374843
0.778535159
0.772651463
0.766725415
0.760758676
0.754752909
0.748709776
0.74263094
0.736518061
0.730372799
0.724196808
0.717991742
0.711759248
0.705500971
0.699218546
0.692913606
0.686587775
0.68024267
0.673879898
0.66750106
0.661107744
0.65470153
0.648283987
0.641856672
0.635421129
0.628978892
0.62253148
0.616080397
0.609627136
0.603173172
0.596719967
0.590268966
0.583821599
0.577379277
0.570943395
0.564515331
0.558096445
0.551688076
0.545291548
0.538908163
0.532539203
0.526185933
0.519849594
0.51353141
0.507232582
0.500954289
0.49469769
0.488463923
0.482254102
0.47606932
0.469910648
0.463779133
0.457675799
0.451601651
0.445557665
0.439544798
0.433563983
0.427616128
0.421702118
0.415822817
0.40997906
0.404171664
0.398401419
0.392669091
0.386975423
0.381321136
0.375706925
0.370133461
0.364601392
0.359111344
0.353663918
0.34825969
0.342899215
0.337583025
0.332311627
0.327085506
0.321905124
0.316770921
0.311683312
0.306642694
0.301649437
0.296703892
0.291806388
0.286957231
0.282156707
0.27740508
0.272702594
0.268049471
0.263445914
0.258892105
0.254388206
0.24993436
0.245530691
0.241177302
0.23687428
0.23262169
0.228419583
0.224267989
0.220166922
0.216116377
0.212116335
0.208166757
0.20426759
0.200418765
0.196620195
0.192871782
0.189173409
0.185524945
0.181926248
0.178377158
0.174877503
0.171427098
0.168025746
0.164673235
0.161369342
0.158113833
0.154906461
0.151746968
0.148635087
0.145570538
0.142553033
0.139582271
0.136657945
0.133779738
0.130947322
0.128160363
0.125418517
0.122721434
0.120068756
0.117460116
0.114895142
0.112373455
0.10989467
0.107458396
0.105064235
0.102711785
0.10040064
0.0981303865
0.0959006092
0.0937108871
0.091560796
0.0894499077
0.0873777909
0.0853440113
0.0833481317
0.0813897125
0.0794683115
0.077583485
0.0757347872
0.0739217708
0.0721439872
0.0704009868
0.0686923192
0.0670175334
0.0653761778
0.0637678008
0.0621919508
0.0606481764
0.0591360267
0.0576550512
0.0562048004
0.0547848258
0.0533946798
0.0520339164
0.050702091
0.0493987606
0.048123484
0.0468758221
0.0456553378
0.0444615962
0.0432941649
0.0421526139
0.0410365159
0.0399454464
0.0388789836
0.0378367089
0.0368182067
0.0358230646
0.0348508735
0.0339012277
0.032973725
0.0320679667
0.0311835578
0.030320107
0.0294772268
0.0286545335
0.0278516475
0.0270681929
0.0263037982
0.0255580956
0.0248307219
0.0241213176
0.0234295277
0.0227550015
0.0220973926
0.0214563586
0.020831562
0.0202226692
0.0196293513
0.0190512836
0.0184881462
0.0179396232
0.0174054034
0.0168851801
0.0163786509
0.0158855181
0.0154054883
0.0149382726
0.0144835865
0.0140411501
0.0136106879
0.0131919287
0.0127846057
0.0123884568
0.012003224
0.0116286537
0.0112644967
0.010910508
0.010566447
0.0102320773
0.00990716673
0.00959148737
0.0092848154
0.00898693116
0.00869761908
0.00841666765
0.00814386939
0.00787902084
0.00762192243
0.00737237856
0.00713019745
0.00689519119
0.00666717564
0.00644597039
0.00623139875
0.00602328769
0.00582146777
0.00562577314
0.00543604145
0.00525211384
0.00507383488
0.0049010525
0.00473361799
0.00457138591
0.00441421407
0.00426196348
0.00411449826
0.00397168567
0.00383339598
0.00369950248
0.00356988142
0.00344441192
0.003322976
0.00320545845
0.00309174685
0.00298173147
0.00287530525
0.00277236375
0.00267280512
0.00257653
0.00248344153
0.00239344527
0.00230644919
0.00222236356
0.00214110098
0.00206257629
0.00198670652
0.00191341089
0.00184261072
0.0017742294
0.00170819236
0.00164442703
0.00158286277
0.00152343087
0.00146606445
0.00141069849
0.00135726974
0.0013057167
0.00125597958
0.00120800026
0.00116172223
0.00111709061
0.00107405205
0.00103255473
0.000992548328
0.000953983954
0.000916814144
0.000880992814
0.000846475231
0.000813217976
0.000781178914
0.000750317164
0.000720593064
0.000691968142
0.000664405088
0.000637867722
0.000612320966
0.000587730813
0.000564064305
0.000541289499
0.000519375444
0.000498292156
0.000478010587
0.000458502604
0.000439740965
0.000421699291
0.000404352044
0.000387674506
0.000371642753
0.000356233634
0.000341424751
0.000327194434
0.000313521726
0.000300386355
0.000287768723
0.000275649877
0.0002640115
0.000252835884
0.000242105919
0.000231805069
0.00022191736
0.00021242736
0.000203320166
0.000194581382
0.000186197112
0.000178153937
0.000170438904
0.000163039513
0.0001559437
0.000149139823
0.000142616654
0.000136363358
0.000130369487
0.000124624967
0.000119120081

shape_id 2
num_samples 800
0
0
798

shape_id 3
num_samples 800
5
10
10
797

shape_id 4
num_samples 2000
7.96361985e-05
0.000235522377
0.000382919157
0.000517181316
0.000633876035
0.000728858658
0.000798344594
0.000838976319
0.000847884526
0.000822742523
0.00076181308
0.000663986999
0.00052881282
0.000356517147
0.000148015234
9.50884199e-05
0.000370509594
0.00067530396
0.00100589666
0.00135812153
0.00172726966
0.00210814658
0.00249513763
0.00288228057
0.00326334466
0.00363191523
0.00398148262
0.00430553448
0.00459765019
0.00485159612
0.00506142066
0.0052215475
0.00532686616
0.00537281832
0.00535547885
0.00527163034
0.00511883007
0.0048954683
0.00460081708
0.00423506866
0.00379936287
0.00329580281
0.00272745845
0.00209835789
0.00141346595
0.000678650372
9.93645111e-05
0.00091305609
0.00175417345
0.0026138183
0.00348253621
0.00435041702
0.00520720371
0.00604240828
0.00684543354
0.00760569942
0.00831277234
0.00895649612
0.00952712294
0.0100154427
0.0104129092
0.0107117618
0.01090514
0.0109871915
0.0109531697
0.0107995209
0.0105239605
0.0101255343
0.00960466759
0.00896319773
0.00820439195
0.00733294845
0.00635498097
0.00527798648
0.00411079611
0.00286350938
0.00154741226
0.000174879566
0.00124073749
0.0026852376
0.00414370836
0.00560067675
0.0070402694
0.00844638123
0.00980285065
0.0110936394
0.012303015
0.0134157342
0.014417225
0.0152937649
0.0160326541
0.0166223807
0.0170527767
0.0173151619
0.0174024747
0.0173093878
0.0170324069
0.016569951
0.0159224138
0.0150922037
0.0140837629
0.0129035642
0.0115600856
0.0100637615
0.00842691217
0.0066636502
0.00478976594
0.0028225917
0.000780846404
0.0013155382
0.0034456081
0.00558759269
0.0077191235
0.00981746381
0.0118597469
0.0138232205
0.0156854946
0.0174247906
0.0190201883
0.0204518684
0.0217013481
0.0227517062
0.0235877962
0.0241964435
0.0245666259
0.0246896333
0.0245592059
0.0241716486
0.0235259195
0.0226236917
0.0214693868
0.0200701793
0.0184359716
0.0165793392
0.0145154462
0.0122619308
0.0098387631
0.00726807496
0.00457396315
0.00178226865
0.00107966709
0.00398326602
0.00689899534
0.00979666434
0.0126457335
0.0154156326
0.0180760845
0.0205974314
0.02295096
0.025109222
0.0270463463
0.02873834
0.0301633739
0.0313020498
0.0321376465
0.0326563409
0.0328474019
0.032703355
0.0322201143
0.0313970804
0.0302372038
0.0287470103
0.0269365899
0.0248195464
0.0224129102
0.0197370126
0.0168153228
0.0136742501
0.0103429108
0.00685286359
0.00323781451
0.00046670509
0.00422368479
0.00799500225
0.0117418076
0.0154249211
0.0190052406
0.0224441534
0.0257039497
0.0287482319
0.0315423165
0.0340536229
0.0362520464
0.0381103093
0.0396042884
0.0407133121
0.0414204268
0.0417126264
0.0415810445
0.0410211041
0.0400326256
0.0386198886
0.0367916477
0.0345611023
0.0319458173
0.0289675984
0.0256523196
0.0220297068
0.0181330767
0.013999035
0.0096671363
0.00517950801
0.000580442332
0.00408403954
0.00876664714
0.0134192996
0.0179936188
0.0224414321
0.0267152787
0.0307689151
0.0345578139
0.0380396504
0.0411747725
0.043926647
0.0462622798
0.048152603
0.0495728251
0.0505027412
0.0509269978
0.0508353098
0.0502226268
0.0490892462
0.0474408716
0.045288614
0.0426489377
0.0395435477
0.035999222
0.0320475877
0.0277248446
0.0230714365
0.0181316756
0.0129533213
0.00758711836
0.00208629915
0.003493946
0.00909702428
0.0146655166
0.0201417682
0.0254684884
0.0305893518
0.0354495963
0.0399966099
0.0441805018
0.0479546494
0.0512762175
0.0541066417
0.0564120726
0.0581637744
0.0593384731
0.0599186514
0.0598927854
0.0592555208
0.0580077858
0.0561568392
0.0537162521
0.0507058234
0.0471514292
0.0430848066
0.0385432746
0.0335693933
0.0282105654
0.0225185835
0.0165491272
0.0103612151
0.00401661712
0.00242076698
0.00888555636
0.0153115591
0.0216324561
0.0277824914
0.0336971628
0.0393139041
0.0445727525
0.0494169946
0.0537937815
0.0576547099
0.0609563595
0.0636607826
0.0657359396
0.0671560759
0.067902035
0.0679615049
0.0673291939
0.0660069345
0.0640037122
0.0613356201
0.0580257379
0.0541039375
0.0496066145
0.0445763509
0.0390615091
0.0331157642
0.0267975758
0.0201696072
0.0132980967
0.00625218732
0.00089677784
0.00807598786
0.0152119156
0.0222310811
0.0290608194
0.0356300431
0.0418699932
0.0477149692
0.0531030309
0.0579766643
0.0622834044
0.0659764074
0.0690149676
0.071364971
0.0729992827
0.0738980614
0.0740489998
0.0734474854
0.0720966819
0.0700075285
0.0671986572
0.0636962286
0.059533688
0.0547514429
0.0493964668
0.0435218308
0.0371861708
0.0304530923
0.0233905217
0.0160700094
0.00856599199
0.000955021833
0.00668502823
0.0142757768
0.0217391534
0.0289982176
0.0359779675
0.0426061314
0.0488139311
0.0545368114
0.0597151261
0.0642947734
0.0682277751
0.0714727908
0.0739955635
0.0757692914
0.0767749204
0.0770013556
0.0764455885
0.0751127386
0.0730160085
0.070176554
0.0666232681
0.0623924836
0.0575275961
0.0520786113
0.0461016215
0.0396582175
0.0328148406
0.0256420837
0.0182139469
0.0106070575
0.00289986027
0.00482820969
0.0124975665
0.0200293136
0.0273460764
0.034372819
0.0410376346
0.0472725026
0.0530140039
0.0582039853
0.0627901684
0.0667266932
0.0699745939
0.072502199
0.0742854527
0.0753081549
0.0755621149
0.0750472203
0.0737714173
0.0717506053
0.069008446
0.0655760882
0.061491814
0.0568006073
0.0515536522
0.0458077653
0.039624768
0.0330708078
0.0262156336
0.0191318351
0.0118940534
0.0045781723
0.00273950094
0.00998305648
0.0170777952
0.0239510254
0.0305328347
0.0367568274
0.0425608212
0.0478874936
0.0526849728
0.0569073652
0.0605152152
0.0634758915
0.0657638967
0.0673610957
0.0682568627
0.0684481436
0.0679394348
0.066742678
0.0648770738
0.0623688152
0.0592507455
0.0555619441
0.051347246
0.0466567
0.0415449725
0.0360707041
0.0302958259
0.0242848446
0.0181041038
0.0118210301
0.00550337359
0.000781549314
0.00696760203
0.012990554
0.0187887787
0.0243039163
0.0294814927
0.0342714881
0.0386288498
0.0425139424
0.0458929315
0.0487380965
0.0510280692
0.0527479966
0.0538896257
0.0544513105
0.0544379414
0.0538607988
0.0527373325
0.0510908712
0.0489502652
0.0463494672
0.0433270576
0.0399257194
0.03619167
0.0321740569
0.0279243259
0.0234955677
0.0189418536
0.0143175662
0.00967673524
0.00507238551
0.00055590547
0.00382355595
0.00801965713
0.0119893892
0.0156935529
0.0190971811
0.0221699029
0.0248862431
0.027225857
0.029173694
0.0307200929
0.0318608038
0.0325969399
0.03293486
0.0328859818
0.0324665311
0.0316972295
0.0306029256
0.0292121744
0.0275567718
0.025671249
0.0235923359
0.021358399
0.019008863
0.0165836228
0.0141224546
0.0116644345
0.00924737131
0.00690726241
0.00467778007
0.00258979454
0.000670941027
0.00105476352
0.00256724873
