# Pulseq sequence file
# Created by MATLAB mr toolbox

[VERSION]
major 1
minor 5
revision 1

[DEFINITIONS]
AdcRasterTime 1e-07 
BlockDurationRaster 1e-05 
FOV 0.22 0.22 0.2145 
GradientRasterTime 1e-05 
Name epi 
RadiofrequencyRasterTime 1e-06 
ReadoutOversamplingFactor 2 
ReceiverGainHigh 1 
SliceGap 0.0015 
SlicePositions -0.10575 -0.10125 -0.09675 -0.09225 -0.08775 -0.08325 -0.07875 -0.07425 -0.06975 -0.06525 -0.06075 -0.05625 -0.05175 -0.04725 -0.04275 -0.03825 -0.03375 -0.02925 -0.02475 -0.02025 -0.01575 -0.01125 -0.00675 -0.00225 0.00225 0.00675 0.01125 0.01575 0.02025 0.02475 0.02925 0.03375 0.03825 0.04275 0.04725 0.05175 0.05625 0.06075 0.06525 0.06975 0.07425 0.07875 0.08325 0.08775 0.09225 0.09675 0.10125 0.10575 
SliceThickness 0.003 
TargetGriddedSamples 128 
TotalDuration 1.52784 
TrapezoidGriddingParameters 0.00023 0.00024 0.00023 4.3e-05 0.0006144 

# Format of blocks:
# NUM DUR RF  GX  GY  GZ  ADC  EXT
[BLOCKS]
   1   0   0   0   0   0  0  1
   2 912   1   0   0   1  0  0
   3 226   2   0   0   2  0  2
   4  78   0   0   0   3  0  0
   5  78   0   4   0   3  0  0
   6 226   3   0   0   2  0  0
   7  78   0   5   0   3  0  4
   8   0   0   0   0   0  0  7
   9  70   0   6   0   0  1  0
  10   0   0   0   0   0  0 10
  11  70   0   7   0   0  1  0
  12   0   0   0   0   0  0 11
  13  70   0   6   0   0  1  0
  14  78   0   0   8   0  0 13
  15  70   0   7   9   0  1 16
  16  70   0   6  10   0  1 18
  17  70   0   7  10   0  1 16
  18  70   0   6  10   0  1 18
  19  70   0   7  10   0  1 16
  20  70   0   6  10   0  1 18
  21  70   0   7  10   0  1 16
  22  70   0   6  10   0  1 18
  23  70   0   7  10   0  1 16
  24  70   0   6  10   0  1 18
  25  70   0   7  10   0  1 16
  26  70   0   6  10   0  1 18
  27  70   0   7  10   0  1 16
  28  70   0   6  10   0  1 18
  29  70   0   7  10   0  1 16
  30  70   0   6  10   0  1 18
  31  70   0   7  10   0  1 16
  32  70   0   6  10   0  1 18
  33  70   0   7  10   0  1 16
  34  70   0   6  10   0  1 18
  35  70   0   7  10   0  1 16
  36  70   0   6  10   0  1 18
  37  70   0   7  10   0  1 16
  38  70   0   6  10   0  1 18
  39  70   0   7  10   0  1 16
  40  70   0   6  10   0  1 18
  41  70   0   7  10   0  1 16
  42  70   0   6  10   0  1 18
  43  70   0   7  10   0  1 16
  44  70   0   6  10   0  1 18
  45  70   0   7  10   0  1 16
  46  70   0   6  10   0  1 18
  47  70   0   7  10   0  1 16
  48  70   0   6  10   0  1 18
  49  70   0   7  10   0  1 16
  50  70   0   6  10   0  1 18
  51  70   0   7  10   0  1 16
  52  70   0   6  10   0  1 18
  53  70   0   7  10   0  1 16
  54  70   0   6  10   0  1 18
  55  70   0   7  10   0  1 16
  56  70   0   6  10   0  1 18
  57  70   0   7  10   0  1 16
  58  70   0   6  10   0  1 18
  59  70   0   7  10   0  1 16
  60  70   0   6  10   0  1 18
  61  70   0   7  10   0  1 16
  62  70   0   6  10   0  1 18
  63  70   0   7  10   0  1 16
  64  70   0   6  10   0  1 18
  65  70   0   7  10   0  1 16
  66  70   0   6  10   0  1 18
  67  70   0   7  10   0  1 16
  68  70   0   6  10   0  1 18
  69  70   0   7  10   0  1 16
  70  70   0   6  10   0  1 18
  71  70   0   7  10   0  1 16
  72  70   0   6  10   0  1 18
  73  70   0   7  10   0  1 16
  74  70   0   6  10   0  1 18
  75  70   0   7  10   0  1 16
  76  70   0   6  10   0  1 18
  77  70   0   7  10   0  1 16
  78  70   0   6  11   0  1 18
  79   0   0   0   0   0  0 19
  80   0   0   0   0   0  0  0
  81 912   1   0   0   1  0  0
  82 226   4   0   0   2  0  2
  83  78   0   0   0   3  0  0
  84  78   0  12   0   3  0  0
  85 226   5   0   0   2  0  0
  86  78   0   5   0   3  0  4
  87   0   0   0   0   0  0  7
  88  70   0   6   0   0  1  0
  89   0   0   0   0   0  0 10
  90  70   0   7   0   0  1  0
  91   0   0   0   0   0  0 11
  92  70   0   6   0   0  1  0
  93  78   0   0   8   0  0 13
  94  70   0   7   9   0  1 16
  95  70   0   6  10   0  1 18
  96  70   0   7  10   0  1 16
  97  70   0   6  10   0  1 18
  98  70   0   7  10   0  1 16
  99  70   0   6  10   0  1 18
 100  70   0   7  10   0  1 16
 101  70   0   6  10   0  1 18
 102  70   0   7  10   0  1 16
 103  70   0   6  10   0  1 18
 104  70   0   7  10   0  1 16
 105  70   0   6  10   0  1 18
 106  70   0   7  10   0  1 16
 107  70   0   6  10   0  1 18
 108  70   0   7  10   0  1 16
 109  70   0   6  10   0  1 18
 110  70   0   7  10   0  1 16
 111  70   0   6  10   0  1 18
 112  70   0   7  10   0  1 16
 113  70   0   6  10   0  1 18
 114  70   0   7  10   0  1 16
 115  70   0   6  10   0  1 18
 116  70   0   7  10   0  1 16
 117  70   0   6  10   0  1 18
 118  70   0   7  10   0  1 16
 119  70   0   6  10   0  1 18
 120  70   0   7  10   0  1 16
 121  70   0   6  10   0  1 18
 122  70   0   7  10   0  1 16
 123  70   0   6  10   0  1 18
 124  70   0   7  10   0  1 16
 125  70   0   6  10   0  1 18
 126  70   0   7  10   0  1 16
 127  70   0   6  10   0  1 18
 128  70   0   7  10   0  1 16
 129  70   0   6  10   0  1 18
 130  70   0   7  10   0  1 16
 131  70   0   6  10   0  1 18
 132  70   0   7  10   0  1 16
 133  70   0   6  10   0  1 18
 134  70   0   7  10   0  1 16
 135  70   0   6  10   0  1 18
 136  70   0   7  10   0  1 16
 137  70   0   6  10   0  1 18
 138  70   0   7  10   0  1 16
 139  70   0   6  10   0  1 18
 140  70   0   7  10   0  1 16
 141  70   0   6  10   0  1 18
 142  70   0   7  10   0  1 16
 143  70   0   6  10   0  1 18
 144  70   0   7  10   0  1 16
 145  70   0   6  10   0  1 18
 146  70   0   7  10   0  1 16
 147  70   0   6  10   0  1 18
 148  70   0   7  10   0  1 16
 149  70   0   6  10   0  1 18
 150  70   0   7  10   0  1 16
 151  70   0   6  10   0  1 18
 152  70   0   7  10   0  1 16
 153  70   0   6  10   0  1 18
 154  70   0   7  10   0  1 16
 155  70   0   6  10   0  1 18
 156  70   0   7  10   0  1 16
 157  70   0   6  11   0  1 18
 158   0   0   0   0   0  0 19
 159   0   0   0   0   0  0  0
 160 912   1   0   0   1  0  0
 161 226   6   0   0   2  0  2
 162  78   0   0   0   3  0  0
 163  78   0   4   0   3  0  0
 164 226   7   0   0   2  0  0
 165  78   0   5   0   3  0  4
 166   0   0   0   0   0  0  7
 167  70   0   6   0   0  1  0
 168   0   0   0   0   0  0 10
 169  70   0   7   0   0  1  0
 170   0   0   0   0   0  0 11
 171  70   0   6   0   0  1  0
 172  78   0   0   8   0  0 13
 173  70   0   7   9   0  1 16
 174  70   0   6  10   0  1 18
 175  70   0   7  10   0  1 16
 176  70   0   6  10   0  1 18
 177  70   0   7  10   0  1 16
 178  70   0   6  10   0  1 18
 179  70   0   7  10   0  1 16
 180  70   0   6  10   0  1 18
 181  70   0   7  10   0  1 16
 182  70   0   6  10   0  1 18
 183  70   0   7  10   0  1 16
 184  70   0   6  10   0  1 18
 185  70   0   7  10   0  1 16
 186  70   0   6  10   0  1 18
 187  70   0   7  10   0  1 16
 188  70   0   6  10   0  1 18
 189  70   0   7  10   0  1 16
 190  70   0   6  10   0  1 18
 191  70   0   7  10   0  1 16
 192  70   0   6  10   0  1 18
 193  70   0   7  10   0  1 16
 194  70   0   6  10   0  1 18
 195  70   0   7  10   0  1 16
 196  70   0   6  10   0  1 18
 197  70   0   7  10   0  1 16
 198  70   0   6  10   0  1 18
 199  70   0   7  10   0  1 16
 200  70   0   6  10   0  1 18
 201  70   0   7  10   0  1 16
 202  70   0   6  10   0  1 18
 203  70   0   7  10   0  1 16
 204  70   0   6  10   0  1 18
 205  70   0   7  10   0  1 16
 206  70   0   6  10   0  1 18
 207  70   0   7  10   0  1 16
 208  70   0   6  10   0  1 18
 209  70   0   7  10   0  1 16
 210  70   0   6  10   0  1 18
 211  70   0   7  10   0  1 16
 212  70   0   6  10   0  1 18
 213  70   0   7  10   0  1 16
 214  70   0   6  10   0  1 18
 215  70   0   7  10   0  1 16
 216  70   0   6  10   0  1 18
 217  70   0   7  10   0  1 16
 218  70   0   6  10   0  1 18
 219  70   0   7  10   0  1 16
 220  70   0   6  10   0  1 18
 221  70   0   7  10   0  1 16
 222  70   0   6  10   0  1 18
 223  70   0   7  10   0  1 16
 224  70   0   6  10   0  1 18
 225  70   0   7  10   0  1 16
 226  70   0   6  10   0  1 18
 227  70   0   7  10   0  1 16
 228  70   0   6  10   0  1 18
 229  70   0   7  10   0  1 16
 230  70   0   6  10   0  1 18
 231  70   0   7  10   0  1 16
 232  70   0   6  10   0  1 18
 233  70   0   7  10   0  1 16
 234  70   0   6  10   0  1 18
 235  70   0   7  10   0  1 16
 236  70   0   6  11   0  1 18
 237   0   0   0   0   0  0 19
 238   0   0   0   0   0  0  0
 239 912   1   0   0   1  0  0
 240 226   8   0   0   2  0  2
 241  78   0   0   0   3  0  0
 242  78   0  12   0   3  0  0
 243 226   9   0   0   2  0  0
 244  78   0   5   0   3  0  4
 245   0   0   0   0   0  0  7
 246  70   0   6   0   0  1  0
 247   0   0   0   0   0  0 10
 248  70   0   7   0   0  1  0
 249   0   0   0   0   0  0 11
 250  70   0   6   0   0  1  0
 251  78   0   0   8   0  0 13
 252  70   0   7   9   0  1 16
 253  70   0   6  10   0  1 18
 254  70   0   7  10   0  1 16
 255  70   0   6  10   0  1 18
 256  70   0   7  10   0  1 16
 257  70   0   6  10   0  1 18
 258  70   0   7  10   0  1 16
 259  70   0   6  10   0  1 18
 260  70   0   7  10   0  1 16
 261  70   0   6  10   0  1 18
 262  70   0   7  10   0  1 16
 263  70   0   6  10   0  1 18
 264  70   0   7  10   0  1 16
 265  70   0   6  10   0  1 18
 266  70   0   7  10   0  1 16
 267  70   0   6  10   0  1 18
 268  70   0   7  10   0  1 16
 269  70   0   6  10   0  1 18
 270  70   0   7  10   0  1 16
 271  70   0   6  10   0  1 18
 272  70   0   7  10   0  1 16
 273  70   0   6  10   0  1 18
 274  70   0   7  10   0  1 16
 275  70   0   6  10   0  1 18
 276  70   0   7  10   0  1 16
 277  70   0   6  10   0  1 18
 278  70   0   7  10   0  1 16
 279  70   0   6  10   0  1 18
 280  70   0   7  10   0  1 16
 281  70   0   6  10   0  1 18
 282  70   0   7  10   0  1 16
 283  70   0   6  10   0  1 18
 284  70   0   7  10   0  1 16
 285  70   0   6  10   0  1 18
 286  70   0   7  10   0  1 16
 287  70   0   6  10   0  1 18
 288  70   0   7  10   0  1 16
 289  70   0   6  10   0  1 18
 290  70   0   7  10   0  1 16
 291  70   0   6  10   0  1 18
 292  70   0   7  10   0  1 16
[RF]
1       129.71 1 2 3 4000 100 0 0 -424.504 10.6689 s
2       502.45 4 5 0 1000 130 0 0 -70500 442.965 e
3       502.45 4 5 0 1000 130 0 0 1500 -9.42478 e
4       502.45 4 5 0 1000 130 0 0 -67500 424.115 e
5       502.45 4 5 0 1000 130 0 0 4500 -28.2743 e
6       502.45 4 5 0 1000 130 0 0 -64500 405.265 e
7       502.45 4 5 0 1000 130 0 0 7500 -47.1239 e
8       502.45 4 5 0 1000 130 0 0 -61500 386.416 e
9       502.45 4 5 0 1000 130 0 0 10500 -65.9734 e
10       502.45 4 5 0 1000 130 0 0 -58500 367.566 e
11       502.45 4 5 0 1000 130 0 0 13500 -84.823 e
12       502.45 4 5 0 1000 130 0 0 -55500 348.717 e
13       502.45 4 5 0 1000 130 0 0 16500 -103.673 e
14       502.45 4 5 0 1000 130 0 0 -52500 329.867 e
15       502.45 4 5 0 1000 130 0 0 19500 -122.522 e
16       502.45 4 5 0 1000 130 0 0 -49500 311.018 e
17       502.45 4 5 0 1000 130 0 0 22500 -141.372 e
18       502.45 4 5 0 1000 130 0 0 -46500 292.168 e
19       502.45 4 5 0 1000 130 0 0 25500 -160.221 e
20       502.45 4 5 0 1000 130 0 0 -43500 273.319 e
21       502.45 4 5 0 1000 130 0 0 28500 -179.071 e
22       502.45 4 5 0 1000 130 0 0 -40500 254.469 e
23       502.45 4 5 0 1000 130 0 0 31500 -197.92 e
24       502.45 4 5 0 1000 130 0 0 -37500 235.619 e
25       502.45 4 5 0 1000 130 0 0 34500 -216.77 e
26       502.45 4 5 0 1000 130 0 0 -34500 216.77 e
27       502.45 4 5 0 1000 130 0 0 37500 -235.619 e
28       502.45 4 5 0 1000 130 0 0 -31500 197.92 e
29       502.45 4 5 0 1000 130 0 0 40500 -254.469 e
30       502.45 4 5 0 1000 130 0 0 -28500 179.071 e
31       502.45 4 5 0 1000 130 0 0 43500 -273.319 e
32       502.45 4 5 0 1000 130 0 0 -25500 160.221 e
33       502.45 4 5 0 1000 130 0 0 46500 -292.168 e
34       502.45 4 5 0 1000 130 0 0 -22500 141.372 e
35       502.45 4 5 0 1000 130 0 0 49500 -311.018 e
36       502.45 4 5 0 1000 130 0 0 -19500 122.522 e
37       502.45 4 5 0 1000 130 0 0 52500 -329.867 e
38       502.45 4 5 0 1000 130 0 0 -16500 103.673 e
39       502.45 4 5 0 1000 130 0 0 55500 -348.717 e
40       502.45 4 5 0 1000 130 0 0 -13500 84.823 e
41       502.45 4 5 0 1000 130 0 0 58500 -367.566 e
42       502.45 4 5 0 1000 130 0 0 -10500 65.9734 e
43       502.45 4 5 0 1000 130 0 0 61500 -386.416 e
44       502.45 4 5 0 1000 130 0 0 -7500 47.1239 e
45       502.45 4 5 0 1000 130 0 0 64500 -405.265 e
46       502.45 4 5 0 1000 130 0 0 -4500 28.2743 e
47       502.45 4 5 0 1000 130 0 0 67500 -424.115 e
48       502.45 4 5 0 1000 130 0 0 -1500 9.42478 e
49       502.45 4 5 0 1000 130 0 0 70500 -442.965 e

# Format of arbitrary gradients:
#   time_shape_id of 0 means default timing (stepping with grad_raster starting at 1/2 of grad_raster)
# id amplitude first last amp_shape_id time_shape_id delay
# ..      Hz/m  Hz/m Hz/m        ..         ..          us
[GRADIENTS]
9      -151515            0      -151515 6 7 670
10      -151515      -151515      -151515 8 9 0
11      -151515      -151515            0 10 7 0

# Format of trapezoid gradients:
# id amplitude rise flat fall delay
# ..      Hz/m   us   us   us    us
[TRAP]
 1  1.35135e+06 250  490 250 8130
 2       666667 130 2000 130   0
 3 -1.33962e+06 250  280 250   0
 4       862798 170    0 170 440
 5       611149 120    0 120 540
 6      -624152 230  240 230   0
 7       624152 230  240 230   0
 8       190418  40  700  40   0
12      -862798 170    0 170 440

# Format of ADC events:
# id num dwell delay freqPPM phasePPM freq phase phase_id
# ..  ..    ns    us     ppm  rad/MHz   Hz   rad       ..
[ADC]
1 256 2400 43 0 0 0 0 0

# Format of extension lists:
# id type ref next_id
# next_id of 0 terminates the list
# Extension list is followed by extension specifications
[EXTENSIONS]
1 1 1 0
2 3 1 0
3 1 2 0
4 1 3 3
5 1 4 0
6 1 5 5
7 1 6 6
8 1 6 0
9 1 7 8
10 1 8 9
11 1 9 6
12 1 10 8
13 1 11 12
14 4 1 0
15 1 7 14
16 1 8 15
17 1 4 14
18 1 5 17
19 4 2 0
20 4 3 0

# Extension specification for digital output and input triggers:
# id type channel delay (us) duration (us)
extension TRIGGERS 3
1 1 1 0 100

# Extension specification for setting labels:
# id set labelstring
extension LABELSET 1
1 0 SLC
2 1 NAV
3 32 LIN
4 1 REV
5 1 SEG
6 0 AVG
7 0 REV
8 0 SEG
9 1 AVG
10 -1 LIN
11 0 NAV

# Extension specification for increasing labels:
# id inc labelstring
extension LABELINC 4
1 1 LIN
2 1 SLC
3 1 REP

# Sequence Shapes
[SHAPES]

shape_id 1
num_samples 800
0.000119120081
0.000124624967
0.000130369487
0.000136363358
0.000142616654
0.000149139823
0.0001559437
0.000163039513
0.000170438904
0.000178153937
0.000186197112
0.000194581382
0.000203320166
0.00021242736
0.00022191736
0.000231805069
0.000242105919
0.000252835884
0.0002640115
0.000275649877
0.000287768723
0.000300386355
0.000313521726
0.000327194434
0.000341424751
0.000356233634
0.000371642753
0.000387674506
0.000404352044
0.000421699291
0.000439740965
0.000458502604
0.000478010587
0.000498292156
0.000519375444
0.000541289499
0.000564064305
0.000587730813
0.000612320966
0.000637867722
0.000664405088
0.000691968142
0.000720593064
0.000750317164
0.000781178914
0.000813217976
0.000846475231
0.000880992814
0.000916814144
0.000953983954
0.000992548328
0.00103255473
0.00107405205
0.00111709061
0.00116172223
0.00120800026
0.00125597958
0.0013057167
0.00135726974
0.00141069849
0.00146606445
0.00152343087
0.00158286277
0.00164442703
0.00170819236
0.0017742294
0.00184261072
0.00191341089
0.00198670652
0.00206257629
0.00214110098
0.00222236356
0.00230644919
0.00239344527
0.00248344153
0.00257653
0.00267280512
0.00277236375
0.00287530525
0.00298173147
0.00309174685
0.00320545845
0.003322976
0.00344441192
0.00356988142
0.00369950248
0.00383339598
0.00397168567
0.00411449826
0.00426196348
0.00441421407
0.00457138591
0.00473361799
0.0049010525
0.00507383488
0.00525211384
0.00543604145
0.00562577314
0.00582146777
0.00602328769
0.00623139875
0.00644597039
0.00666717564
0.00689519119
0.00713019745
0.00737237856
0.00762192243
0.00787902084
0.00814386939
0.00841666765
0.00869761908
0.00898693116
0.0092848154
0.00959148737
0.00990716673
0.0102320773
0.010566447
0.010910508
0.0112644967
0.0116286537
0.012003224
0.0123884568
0.0127846057
0.0131919287
0.0136106879
0.0140411501
0.0144835865
0.0149382726
0.0154054883
0.0158855181
0.0163786509
0.0168851801
0.0174054034
0.0179396232
0.0184881462
0.0190512836
0.0196293513
0.0202226692
0.020831562
0.0214563586
0.0220973926
0.0227550015
0.0234295277
0.0241213176
0.0248307219
0.0255580956
0.0263037982
0.0270681929
0.0278516475
0.0286545335
0.0294772268
0.030320107
0.0311835578
0.0320679667
0.032973725
0.0339012277
0.0348508735
0.0358230646
0.0368182067
0.0378367089
0.0388789836
0.0399454464
0.0410365159
0.0421526139
0.0432941649
0.0444615962
0.0456553378
0.0468758221
0.048123484
0.0493987606
0.050702091
0.0520339164
0.0533946798
0.0547848258
0.0562048004
0.0576550512
0.0591360267
0.0606481764
0.0621919508
0.0637678008
0.0653761778
0.0670175334
0.0686923192
0.0704009868
0.0721439872
0.0739217708
0.0757347872
0.077583485
0.0794683115
0.0813897125
0.0833481317
0.0853440113
0.0873777909
0.0894499077
0.091560796
0.0937108871
0.0959006092
0.0981303865
0.10040064
0.102711785
0.105064235
0.107458396
0.10989467
0.112373455
0.114895142
0.117460116
0.120068756
0.122721434
0.125418517
0.128160363
0.130947322
0.133779738
0.136657945
0.139582271
0.142553033
0.145570538
0.148635087
0.151746968
0.154906461
0.158113833
0.161369342
0.164673235
0.168025746
0.171427098
0.174877503
0.178377158
0.181926248
0.185524945
0.189173409
0.192871782
0.196620195
0.200418765
0.20426759
0.208166757
0.212116335
0.216116377
0.220166922
0.224267989
0.228419583
0.23262169
0.23687428
0.241177302
0.245530691
0.24993436
0.254388206
0.258892105
0.263445914
0.268049471
0.272702594
0.27740508
0.282156707
0.286957231
0.291806388
0.296703892
0.301649437
0.306642694
0.311683312
0.316770921
0.321905124
0.327085506
0.332311627
0.337583025
0.342899215
0.34825969
0.353663918
0.359111344
0.364601392
0.370133461
0.375706925
0.381321136
0.386975423
0.392669091
0.398401419
0.404171664
0.40997906
0.415822817
0.421702118
0.427616128
0.433563983
0.439544798
0.445557665
0.451601651
0.457675799
0.463779133
0.469910648
0.47606932
0.482254102
0.488463923
0.49469769
0.500954289
0.507232582
0.51353141
0.519849594
0.526185933
0.532539203
0.538908163
0.545291548
0.551688076
0.558096445
0.564515331
0.570943395
0.577379277
0.583821599
0.590268966
0.596719967
0.603173172
0.609627136
0.616080397
0.62253148
0.628978892
0.635421129
0.641856672
0.648283987
0.65470153
0.661107744
0.66750106
0.673879898
0.68024267
0.686587775
0.692913606
0.699218546
0.705500971
0.711759248
0.717991742
0.724196808
0.730372799
0.736518061
0.74263094
0.748709776
0.754752909
0.760758676
0.766725415
0.772651463
0.778535159
0.784374843
0.790168858
0.795915549
0.801613266
0.807260363
0.812855202
0.818396148
0.823881575
0.829309865
0.834679408
0.839988604
0.845235864
0.850419607
0.855538267
0.860590291
0.865574137
0.870488278
0.875331203
0.880101417
0.884797439
0.889417807
0.893961078
0.898425827
0.902810647
0.907114154
0.911334982
0.91547179
0.919523256
0.923488085
0.927365001
0.931152758
0.934850131
0.938455922
0.941968961
0.945388102
0.948712229
0.951940255
0.955071121
0.958103795
0.96103728
0.963870605
0.966602833
0.969233059
0.971760407
0.974184037
0.976503141
0.978716944
0.980824705
0.982825719
0.984719313
0.986504852
0.988181735
0.989749397
0.991207311
0.992554983
0.993791959
0.99491782
0.995932185
0.996834712
0.997625093
0.998303062
0.998868388
0.999320879
0.999660382
0.999886781
1
1
0.999886781
0.999660382
0.999320879
0.998868388
0.998303062
0.997625093
0.996834712
0.995932185
0.99491782
0.993791959
0.992554983
0.991207311
0.989749397
0.988181735
0.986504852
0.984719313
0.982825719
0.980824705
0.978716944
0.976503141
0.974184037
0.971760407
0.969233059
0.966602833
0.963870605
0.96103728
0.958103795
0.955071121
0.951940255
0.948712229
0.945388102
0.941968961
0.938455922
0.934850131
0.931152758
0.927365001
0.923488085
0.919523256
0.91547179
0.911334982
0.907114154
0.902810647
0.898425827
0.893961078
0.889417807
0.884797439
0.880101417
0.875331203
0.870488278
0.865574137
0.860590291
0.855538267
0.850419607
0.845235864
0.839988604
0.834679408
0.829309865
0.823881575
0.818396148
0.812855202
0.807260363
0.801613266
0.795915549
0.790168858
0.784374843
0.778535159
0.772651463
0.766725415
0.760758676
0.754752909
0.748709776
0.74263094
0.736518061
0.730372799
0.724196808
0.717991742
0.711759248
0.705500971
0.699218546
0.692913606
0.686587775
0.68024267
0.673879898
0.66750106
0.661107744
0.65470153
0.648283987
0.641856672
0.635421129
0.628978892
0.62253148
0.616080397
0.609627136
0.603173172
0.596719967
0.590268966
0.583821599
0.577379277
0.570943395
0.564515331
0.558096445
0.551688076
0.545291548
0.538908163
0.532539203
0.526185933
0.519849594
0.51353141
0.507232582
0.500954289
0.49469769
0.488463923
0.482254102
0.47606932
0.469910648
0.463779133
0.457675799
0.451601651
0.445557665
0.439544798
0.433563983
0.427616128
0.421702118
0.415822817
0.40997906
0.404171664
0.398401419
0.392669091
0.386975423
0.381321136
0.375706925
0.370133461
0.364601392
0.359111344
0.353663918
0.34825969
0.342899215
0.337583025
0.332311627
0.327085506
0.321905124
0.316770921
0.311683312
0.306642694
0.301649437
0.296703892
0.291806388
0.286957231
0.282156707
0.27740508
0.272702594
0.268049471
0.263445914
0.258892105
0.254388206
0.24993436
0.245530691
0.241177302
0.23687428
0.23262169
0.228419583
0.224267989
0.220166922
0.216116377
0.212116335
0.208166757
0.20426759
0.200418765
0.196620195
0.192871782
0.189173409
0.185524945
0.181926248
0.178377158
0.174877503
0.171427098
0.168025746
0.164673235
0.161369342
0.158113833
0.154906461
0.151746968
0.148635087
0.145570538
0.142553033
0.139582271
0.136657945
0.133779738
0.130947322
0.128160363
0.125418517
0.122721434
0.120068756
0.117460116
0.114895142
0.112373455
0.10989467
0.107458396
0.105064235
0.102711785
0.10040064
0.0981303865
0.0959006092
0.0937108871
0.091560796
0.0894499077
0.0873777909
0.0853440113
0.0833481317
0.0813897125
0.0794683115
0.077583485
0.0757347872
0.0739217708
0.0721439872
0.0704009868
0.0686923192
0.0670175334
0.0653761778
0.0637678008
0.0621919508
0.0606481764
0.0591360267
0.0576550512
0.0562048004
0.0547848258
0.0533946798
0.0520339164
0.050702091
0.0493987606
0.048123484
0.0468758221
0.0456553378
0.0444615962
0.0432941649
0.0421526139
0.0410365159
0.0399454464
0.0388789836
0.0378367089
0.0368182067
0.0358230646
0.0348508735
0.0339012277
0.032973725
0.0320679667
0.0311835578
0.030320107
0.0294772268
0.0286545335
0.0278516475
0.0270681929
0.0263037982
0.0255580956
0.0248307219
0.0241213176
0.0234295277
0.0227550015
0.0220973926
0.0214563586
0.020831562
0.0202226692
0.0196293513
0.0190512836
0.0184881462
0.0179396232
0.0174054034
0.0168851801
0.0163786509
0.0158855181
0.0154054883
0.0149382726
0.0144835865
0.0140411501
0.0136106879
0.0131919287
0.0127846057
0.0123884568
0.012003224
0.0116286537
0.0112644967
0.010910508
0.010566447
0.0102320773
0.00990716673
0.00959148737
0.0092848154
0.00898693116
0.00869761908
0.00841666765
0.00814386939
0.00787902084
0.00762192243
0.00737237856
0.00713019745
0.00689519119
0.00666717564
0.00644597039
0.00623139875
0.00602328769
0.00582146777
0.00562577314
0.00543604145
0.00525211384
0.00507383488
0.0049010525
0.00473361799
0.00457138591
0.00441421407
0.00426196348
0.00411449826
0.00397168567
0.00383339598
0.00369950248
0.00356988142
0.00344441192
0.003322976
0.00320545845
0.00309174685
0.00298173147
0.00287530525
0.00277236375
0.00267280512
0.00257653
0.00248344153
0.00239344527
0.00230644919
0.00222236356
0.00214110098
0.00206257629
0.00198670652
0.00191341089
0.00184261072
0.0017742294
0.00170819236
0.00164442703
0.00158286277
0.00152343087
0.00146606445
0.00141069849
0.00135726974
0.0013057167
0.00125597958
0.00120800026
0.00116172223
0.00111709061
0.00107405205
0.00103255473
0.000992548328
0.000953983954
0.000916814144
0.000880992814
0.000846475231
0.000813217976
0.000781178914
0.000750317164
0.000720593064
0.000691968142
0.000664405088
0.000637867722
0.000612320966
0.000587730813
0.000564064305
0.000541289499
0.000519375444
0.000498292156
0.000478010587
0.000458502604
0.000439740965
0.000421699291
0.000404352044
0.000387674506
0.000371642753
0.000356233634
0.000341424751
0.000327194434
0.000313521726
0.000300386355
0.000287768723
0.000275649877
0.0002640115
0.000252835884
0.000242105919
0.000231805069
0.00022191736
0.00021242736
0.000203320166
0.000194581382
0.000186197112
0.000178153937
0.000170438904
0.000163039513
0.0001559437
0.000149139823
0.000142616654
0.000136363358
0.000130369487
0.000124624967
0.000119120081

shape_id 2
num_samples 800
0
0
798

shape_id 3
num_samples 800
5
10
10
797

shape_id 4
num_samples 2000
8.00403207e-05
0.000240364508
0.000401019348
0.000562011973
0.000723349541
0.000885039232
0.00104708825
0.00120950381
0.00137229317
0.00153546357
0.00169902229
0.00186297663
0.00202733387
0.00219210134
0.00235728635
0.00252289623
0.00268893833
0.00285541997
0.00302234851
0.0031897313
0.00335757566
0.00352588896
0.00369467853
0.00386395171
0.00403371583
0.00420397822
0.00437474618
0.00454602702
0.00471782802
0.00489015647
0.00506301962
0.00523642471
0.00541037896
0.00558488958
0.00575996374
0.0059356086
0.00611183128
0.00628863889
0.00646603849
0.00664403713
0.00682264182
0.00700185952
0.00718169717
0.00736216167
0.00754325988
0.00772499862
0.00790738467
0.00809042475
0.00827412556
0.00845849372
0.00864353582
0.0088292584
0.00901566795
0.00920277089
0.00939057359
0.00957908236
0.00976830346
0.00995824308
0.0101489073
0.0103403023
0.010532434
0.0107253083
0.0109189311
0.0111133082
0.0113084453
0.011504348
0.0117010218
0.0118984724
0.012096705
0.0122957249
0.0124955375
0.0126961479
0.012897561
0.013099782
0.0133028156
0.0135066667
0.01371134
0.01391684
0.0141231712
0.0143303381
0.014538345
0.014747196
0.0149568952
0.0151674467
0.0153788543
0.0155911217
0.0158042527
0.0160182508
0.0162331194
0.0164488618
0.0166654812
0.0168829808
0.0171013634
0.0173206319
0.017540789
0.0177618373
0.0179837793
0.0182066172
0.0184303533
0.0186549897
0.0188805282
0.0191069707
0.0193343189
0.0195625742
0.019791738
0.0200218116
0.020252796
0.0204846923
0.0207175012
0.0209512233
0.0211858593
0.0214214094
0.0216578738
0.0218952527
0.0221335458
0.022372753
0.0226128737
0.0228539075
0.0230958536
0.0233387111
0.0235824789
0.0238271557
0.0240727403
0.0243192309
0.0245666259
0.0248149234
0.0250641213
0.0253142173
0.025565209
0.0258170938
0.0260698689
0.0263235313
0.0265780779
0.0268335054
0.0270898102
0.0273469887
0.027605037
0.027863951
0.0281237265
0.028384359
0.0286458439
0.0289081764
0.0291713514
0.0294353637
0.029700208
0.0299658786
0.0302323697
0.0304996753
0.0307677893
0.0310367052
0.0313064165
0.0315769162
0.0318481975
0.0321202531
0.0323930756
0.0326666574
0.0329409906
0.0332160671
0.0334918789
0.0337684173
0.0340456737
0.0343236393
0.0346023049
0.0348816612
0.0351616987
0.0354424076
0.035723778
0.0360057997
0.0362884624
0.0365717553
0.0368556677
0.0371401885
0.0374253065
0.03771101
0.0379972875
0.0382841269
0.0385715162
0.0388594428
0.0391478942
0.0394368576
0.0397263198
0.0400162676
0.0403066874
0.0405975656
0.040888888
0.0411806406
0.0414728087
0.0417653779
0.0420583332
0.0423516594
0.0426453412
0.042939363
0.0432337089
0.043528363
0.0438233088
0.04411853
0.0444140097
0.0447097309
0.0450056764
0.0453018288
0.0455981703
0.0458946831
0.0461913489
0.0464881493
0.0467850658
0.0470820795
0.0473791712
0.0476763217
0.0479735113
0.0482707202
0.0485679285
0.0488651157
0.0491622615
0.049459345
0.0497563453
0.0500532411
0.050350011
0.0506466334
0.0509430862
0.0512393473
0.0515353944
0.0518312048
0.0521267557
0.0524220239
0.0527169862
0.0530116189
0.0533058983
0.0535998004
0.0538933009
0.0541863753
0.0544789989
0.0547711468
0.0550627938
0.0553539144
0.0556444831
0.055934474
0.0562238609
0.0565126176
0.0568007175
0.0570881339
0.0573748397
0.0576608078
0.0579460106
0.0582304205
0.0585140096
0.0587967498
0.0590786127
0.0593595699
0.0596395924
0.0599186514
0.0601967176
0.0604737615
0.0607497536
0.0610246639
0.0612984624
0.0615711188
0.0618426026
0.062112883
0.0623819292
0.0626497099
0.0629161939
0.0631813496
0.0634451452
0.0637075488
0.0639685282
0.0642280511
0.0644860847
0.0647425965
0.0649975534
0.0652509222
0.0655026696
0.065752762
0.0660011657
0.0662478466
0.0664927707
0.0667359036
0.0669772109
0.0672166577
0.0674542093
0.0676898304
0.0679234859
0.0681551404
0.0683847582
0.0686123034
0.0688377402
0.0690610324
0.0692821436
0.0695010374
0.069717677
0.0699320257
0.0701440465
0.0703537021
0.0705609553
0.0707657685
0.0709681042
0.0711679244
0.0713651913
0.0715598667
0.0717519123
0.0719412897
0.0721279604
0.0723118855
0.0724930264
0.0726713438
0.0728467988
0.0730193519
0.0731889639
0.073355595
0.0735192057
0.073679756
0.0738372062
0.0739915159
0.0741426452
0.0742905535
0.0744352006
0.0745765458
0.0747145484
0.0748491676
0.0749803626
0.0751080923
0.0752323155
0.0753529912
0.0754700778
0.0755835341
0.0756933184
0.0757993891
0.0759017046
0.076000223
0.0760949024
0.0761857008
0.0762725762
0.0763554864
0.0764343891
0.0765092422
0.0765800031
0.0766466295
0.0767090788
0.0767673085
0.0768212758
0.0768709382
0.0769162527
0.0769571767
0.0769936671
0.0770256812
0.0770531758
0.0770761081
0.0770944348
0.077108113
0.0771170994
0.077121351
0.0771208244
0.0771154765
0.0771052639
0.0770901435
0.0770700718
0.0770450056
0.0770149014
0.0769797161
0.0769394061
0.0768939281
0.0768432387
0.0767872945
0.0767260523
0.0766594685
0.0765874999
0.076510103
0.0764272345
0.0763388511
0.0762449095
0.0761453664
0.0760401785
0.0759293026
0.0758126955
0.075690314
0.0755621149
0.0754280553
0.0752880919
0.0751421819
0.0749902822
0.07483235
0.0746683424
0.0744982165
0.0743219297
0.0741394393
0.0739507026
0.0737556772
0.0735543206
0.0733465903
0.0731324441
0.0729118397
0.072684735
0.072451088
0.0722108567
0.0719639991
0.0717104736
0.0714502385
0.0711832521
0.0709094731
0.0706288601
0.0703413718
0.0700469671
0.069745605
0.0694372447
0.0691218453
0.0687993663
0.0684697671
0.0681330074
0.067789047
