# Pulseq sequence file
# Created by MATLAB mr toolbox

[VERSION]
major 1
minor 5
revision 1

[DEFINITIONS]
AdcRasterTime 1e-07 
BlockDurationRaster 1e-05 
FOV 0.256 0.256 0.003 
GradientRasterTime 1e-05 
Name epise 
RadiofrequencyRasterTime 1e-06 
TotalDuration 0.24202 

# Format of blocks:
# NUM DUR RF  GX  GY  GZ  ADC  EXT
[BLOCKS]
  1 319   1   0   0   1  0  0
  2  80   0   0   0   2  0  0
  3  80   0   3   4   0  0  0
  4 3131   0   0   0   0  0  0
  5 240   0   0   0   5  0  0
  6 615   2   0   0   6  0  0
  7 240   0   0   0   5  0  0
  8 666   0   0   0   0  0  0
  9  80   0   7   0   0  1  0
 10  25   0   0   8   9  0  0
 11  80   0  10   0   0  1  0
 12  25   0   0   8  11  0  0
 13  80   0   7   0   0  1  0
 14  25   0   0   8   9  0  0
 15  80   0  10   0   0  1  0
 16  25   0   0   8  11  0  0
 17  80   0   7   0   0  1  0
 18  25   0   0   8   9  0  0
 19  80   0  10   0   0  1  0
 20  25   0   0   8  11  0  0
 21  80   0   7   0   0  1  0
 22  25   0   0   8   9  0  0
 23  80   0  10   0   0  1  0
 24  25   0   0   8  11  0  0
 25  80   0   7   0   0  1  0
 26  25   0   0   8   9  0  0
 27  80   0  10   0   0  1  0
 28  25   0   0   8  11  0  0
 29  80   0   7   0   0  1  0
 30  25   0   0   8   9  0  0
 31  80   0  10   0   0  1  0
 32  25   0   0   8  11  0  0
 33  80   0   7   0   0  1  0
 34  25   0   0   8   9  0  0
 35  80   0  10   0   0  1  0
 36  25   0   0   8  11  0  0
 37  80   0   7   0   0  1  0
 38  25   0   0   8   9  0  0
 39  80   0  10   0   0  1  0
 40  25   0   0   8  11  0  0
 41  80   0   7   0   0  1  0
 42  25   0   0   8   9  0  0
 43  80   0  10   0   0  1  0
 44  25   0   0   8  11  0  0
 45  80   0   7   0   0  1  0
 46  25   0   0   8   9  0  0
 47  80   0  10   0   0  1  0
 48  25   0   0   8  11  0  0
 49  80   0   7   0   0  1  0
 50  25   0   0   8   9  0  0
 51  80   0  10   0   0  1  0
 52  25   0   0   8  11  0  0
 53  80   0   7   0   0  1  0
 54  25   0   0   8   9  0  0
 55  80   0  10   0   0  1  0
 56  25   0   0   8  11  0  0
 57  80   0   7   0   0  1  0
 58  25   0   0   8   9  0  0
 59  80   0  10   0   0  1  0
 60  25   0   0   8  11  0  0
 61  80   0   7   0   0  1  0
 62  25   0   0   8   9  0  0
 63  80   0  10   0   0  1  0
 64  25   0   0   8  11  0  0
 65  80   0   7   0   0  1  0
 66  25   0   0   8   9  0  0
 67  80   0  10   0   0  1  0
 68  25   0   0   8  11  0  0
 69  80   0   7   0   0  1  0
 70  25   0   0   8   9  0  0
 71  80   0  10   0   0  1  0
 72  25   0   0   8  11  0  0
 73  80   0   7   0   0  1  0
 74  25   0   0   8   9  0  0
 75  80   0  10   0   0  1  0
 76  25   0   0   8  11  0  0
 77  80   0   7   0   0  1  0
 78  25   0   0   8   9  0  0
 79  80   0  10   0   0  1  0
 80  25   0   0   8  11  0  0
 81  80   0   7   0   0  1  0
 82  25   0   0   8   9  0  0
 83  80   0  10   0   0  1  0
 84  25   0   0   8  11  0  0
 85  80   0   7   0   0  1  0
 86  25   0   0   8   9  0  0
 87  80   0  10   0   0  1  0
 88  25   0   0   8  11  0  0
 89  80   0   7   0   0  1  0
 90  25   0   0   8   9  0  0
 91  80   0  10   0   0  1  0
 92  25   0   0   8  11  0  0
 93  80   0   7   0   0  1  0
 94  25   0   0   8   9  0  0
 95  80   0  10   0   0  1  0
 96  25   0   0   8  11  0  0
 97  80   0   7   0   0  1  0
 98  25   0   0   8   9  0  0
 99  80   0  10   0   0  1  0
100  25   0   0   8  11  0  0
101  80   0   7   0   0  1  0
102  25   0   0   8   9  0  0
103  80   0  10   0   0  1  0
104  25   0   0   8  11  0  0
105  80   0   7   0   0  1  0
106  25   0   0   8   9  0  0
107  80   0  10   0   0  1  0
108  25   0   0   8  11  0  0
109  80   0   7   0   0  1  0
110  25   0   0   8   9  0  0
111  80   0  10   0   0  1  0
112  25   0   0   8  11  0  0
113  80   0   7   0   0  1  0
114  25   0   0   8   9  0  0
115  80   0  10   0   0  1  0
116  25   0   0   8  11  0  0
117  80   0   7   0   0  1  0
118  25   0   0   8   9  0  0
119  80   0  10   0   0  1  0
120  25   0   0   8  11  0  0
121  80   0   7   0   0  1  0
122  25   0   0   8   9  0  0
123  80   0  10   0   0  1  0
124  25   0   0   8  11  0  0
125  80   0   7   0   0  1  0
126  25   0   0   8   9  0  0
127  80   0  10   0   0  1  0
128  25   0   0   8  11  0  0
129  80   0   7   0   0  1  0
130  25   0   0   8   9  0  0
131  80   0  10   0   0  1  0
132  25   0   0   8  11  0  0
133  80   0   7   0   0  1  0
134  25   0   0   8   9  0  0
135  80   0  10   0   0  1  0
136  25   0   0   8  11  0  0
137  10   0   0   0   0  0  0
138 319   3   0   0   1  0  0
139  80   0   0   0   2  0  0
140  80   0   3   4   0  0  0
141 3131   0   0   0   0  0  0
142 240   0   0   0   5  0  0
143 615   4   0   0   6  0  0
144 240   0   0   0   5  0  0
145 666   0   0   0   0  0  0
146  80   0   7   0   0  1  0
147  25   0   0   8   9  0  0
148  80   0  10   0   0  1  0
149  25   0   0   8  11  0  0
150  80   0   7   0   0  1  0
151  25   0   0   8   9  0  0
152  80   0  10   0   0  1  0
153  25   0   0   8  11  0  0
154  80   0   7   0   0  1  0
155  25   0   0   8   9  0  0
156  80   0  10   0   0  1  0
157  25   0   0   8  11  0  0
158  80   0   7   0   0  1  0
159  25   0   0   8   9  0  0
160  80   0  10   0   0  1  0
161  25   0   0   8  11  0  0
162  80   0   7   0   0  1  0
163  25   0   0   8   9  0  0
164  80   0  10   0   0  1  0
165  25   0   0   8  11  0  0
166  80   0   7   0   0  1  0
167  25   0   0   8   9  0  0
168  80   0  10   0   0  1  0
169  25   0   0   8  11  0  0
170  80   0   7   0   0  1  0
171  25   0   0   8   9  0  0
172  80   0  10   0   0  1  0
173  25   0   0   8  11  0  0
174  80   0   7   0   0  1  0
175  25   0   0   8   9  0  0
176  80   0  10   0   0  1  0
177  25   0   0   8  11  0  0
178  80   0   7   0   0  1  0
179  25   0   0   8   9  0  0
180  80   0  10   0   0  1  0
181  25   0   0   8  11  0  0
182  80   0   7   0   0  1  0
183  25   0   0   8   9  0  0
184  80   0  10   0   0  1  0
185  25   0   0   8  11  0  0
186  80   0   7   0   0  1  0
187  25   0   0   8   9  0  0
188  80   0  10   0   0  1  0
189  25   0   0   8  11  0  0
190  80   0   7   0   0  1  0
191  25   0   0   8   9  0  0
192  80   0  10   0   0  1  0
193  25   0   0   8  11  0  0
194  80   0   7   0   0  1  0
195  25   0   0   8   9  0  0
196  80   0  10   0   0  1  0
197  25   0   0   8  11  0  0
198  80   0   7   0   0  1  0
199  25   0   0   8   9  0  0
200  80   0  10   0   0  1  0
201  25   0   0   8  11  0  0
202  80   0   7   0   0  1  0
203  25   0   0   8   9  0  0
204  80   0  10   0   0  1  0
205  25   0   0   8  11  0  0
206  80   0   7   0   0  1  0
207  25   0   0   8   9  0  0
208  80   0  10   0   0  1  0
209  25   0   0   8  11  0  0
210  80   0   7   0   0  1  0
211  25   0   0   8   9  0  0
212  80   0  10   0   0  1  0
213  25   0   0   8  11  0  0
214  80   0   7   0   0  1  0
215  25   0   0   8   9  0  0
216  80   0  10   0   0  1  0
217  25   0   0   8  11  0  0
218  80   0   7   0   0  1  0
219  25   0   0   8   9  0  0
220  80   0  10   0   0  1  0
221  25   0   0   8  11  0  0
222  80   0   7   0   0  1  0
223  25   0   0   8   9  0  0
224  80   0  10   0   0  1  0
225  25   0   0   8  11  0  0
226  80   0   7   0   0  1  0
227  25   0   0   8   9  0  0
228  80   0  10   0   0  1  0
229  25   0   0   8  11  0  0
230  80   0   7   0   0  1  0
231  25   0   0   8   9  0  0
232  80   0  10   0   0  1  0
233  25   0   0   8  11  0  0
234  80   0   7   0   0  1  0
235  25   0   0   8   9  0  0
236  80   0  10   0   0  1  0
237  25   0   0   8  11  0  0
238  80   0   7   0   0  1  0
239  25   0   0   8   9  0  0
240  80   0  10   0   0  1  0
241  25   0   0   8  11  0  0
242  80   0   7   0   0  1  0
243  25   0   0   8   9  0  0
244  80   0  10   0   0  1  0
245  25   0   0   8  11  0  0
246  80   0   7   0   0  1  0
247  25   0   0   8   9  0  0
248  80   0  10   0   0  1  0
249  25   0   0   8  11  0  0
250  80   0   7   0   0  1  0
251  25   0   0   8   9  0  0
252  80   0  10   0   0  1  0
253  25   0   0   8  11  0  0
254  80   0   7   0   0  1  0
255  25   0   0   8   9  0  0
256  80   0  10   0   0  1  0
257  25   0   0   8  11  0  0
258  80   0   7   0   0  1  0
259  25   0   0   8   9  0  0
260  80   0  10   0   0  1  0
261  25   0   0   8  11  0  0
262  80   0   7   0   0  1  0
263  25   0   0   8   9  0  0
264  80   0  10   0   0  1  0
265  25   0   0   8  11  0  0
266  80   0   7   0   0  1  0
267  25   0   0   8   9  0  0
268  80   0  10   0   0  1  0
269  25   0   0   8  11  0  0
270  80   0   7   0   0  1  0
271  25   0   0   8   9  0  0
272  80   0  10   0   0  1  0
273  25   0   0   8  11  0  0
274  10   0   0   0   0  0  0

# Format of RF events:
# id ampl. mag_id phase_id time_shape_id center delay freqPPM phasePPM freq phase use
# ..   Hz      ..       ..            ..     us    us     ppm  rad/MHz   Hz   rad  ..
# Field 'use' is the initial of: 
#   excitation refocusing inversion saturation preparation other undefined
[RF]
1      658.303 1 2 0 1500 100 0 0 -1000 9.42478 e
2      329.152 3 4 0 3000 100 0 0 -1000 18.8496 r
3      658.303 1 2 0 1500 100 0 0 1000 -9.42478 e
4      329.152 3 4 0 3000 100 0 0 1000 -18.8496 r

# Format of trapezoid gradients:
# id amplitude rise flat fall delay
# ..      Hz/m   us   us   us    us
[TRAP]
 1       444444  90 3000  90  10
 2 -1.18391e+06 220  360 220   0
 3       182463  40  720  40   0
 4       162338  30  740  30   0
 5  1.26575e+06 230 1940 230   0
 6       222222  50 6000  50  50
 7       390625  80  640  80   0
 8        16276  10  230  10   0
 9       595238 110   30 110   0
10      -390625  80  640  80   0
11      -595238 110   30 110   0

# Format of ADC events:
# id num dwell delay freqPPM phasePPM freq phase phase_id
# ..  ..    ns    us     ppm  rad/MHz   Hz   rad       ..
[ADC]
1 64 10000 80 0 0 0 0 0

# Sequence Shapes
[SHAPES]

shape_id 1
num_samples 3000
9.14125066e-11
2.46950849e-09
1.14383863e-08
3.13995694e-08
6.67572974e-08
1.21915162e-07
2.01272735e-07
3.09222186e-07
4.50144895e-07
6.28408059e-07
8.48361297e-07
1.11433324e-06
1.43062815e-06
1.80152249e-06
2.23126152e-06
2.72405594e-06
3.28407842e-06
3.91546028e-06
4.62228802e-06
5.40860002e-06
6.2783831e-06
7.23556917e-06
8.28403187e-06
9.42758326e-06
1.06699704e-05
1.20148722e-05
1.34658958e-05
1.50265736e-05
1.67003599e-05
1.84906275e-05
2.04006646e-05
2.24336717e-05
2.45927579e-05
2.68809383e-05
2.93011308e-05
3.18561526e-05
3.45487173e-05
3.7381432e-05
4.03567939e-05
4.34771876e-05
4.67448822e-05
5.01620278e-05
5.37306533e-05
5.74526629e-05
6.13298338e-05
6.53638128e-05
6.95561141e-05
7.39081163e-05
7.84210595e-05
8.30960432e-05
8.79340232e-05
9.2935809e-05
9.81020619e-05
0.000103433292
0.000108929855
0.000114591952
0.000120419625
0.000126412756
0.000132571063
0.000138894101
0.000145381257
0.000152031747
0.000158844619
0.000165818745
0.000172952824
0.000180245376
0.000187694744
0.00019529909
0.000203056394
0.00021096445
0.00021902087
0.000227223076
0.000235568303
0.000244053597
0.000252675813
0.00026143161
0.000270317459
0.000279329633
0.000288464209
0.000297717069
0.000307083896
0.000316560177
0.000326141196
0.000335822041
0.000345597596
0.000355462545
0.000365411372
0.000375438358
0.000385537579
0.000395702911
0.000405928028
0.000416206398
0.000426531287
0.000436895758
0.000447292672
0.000457714686
0.000468154254
0.000478603628
0.000489054858
0.000499499794
0.000509930083
0.000520337172
0.00053071231
0.000541046546
0.00055133073
0.000561555516
0.000571711364
0.000581788535
0.000591777098
0.000601666932
0.000611447721
0.000621108961
0.000630639958
0.000640029835
0.000649267526
0.000658341783
0.000667241176
0.000675954097
0.000684468757
0.000692773194
0.000700855272
0.00070870268
0.000716302943
0.000723643416
0.000730711289
0.000737493592
0.000743977194
0.000750148808
0.000755994993
0.000761502155
0.000766656553
0.000771444301
0.000775851369
0.000779863589
0.000783466656
0.00078664613
0.000789387445
0.000791675907
0.000793496697
0.00079483488
0.000795675403
0.0007960031
0.000795802699
0.000795058823
0.000793755991
0.000791878628
0.000789411065
0.000786337544
0.000782642224
0.00077830918
0.000773322412
0.000767665849
0.000761323351
0.000754278715
0.000746515679
0.000738017926
0.000728769089
0.000718752758
0.00070795248
0.000696351767
0.000683934101
0.000670682935
0.000656581705
0.000641613827
0.000625762707
0.000609011746
0.000591344341
0.000572743894
0.000553193819
0.000532677539
0.0005111785
0.000488680173
0.000465166058
0.000440619689
0.000415024644
0.000388364546
0.000360623068
0.000331783943
0.000301830965
0.000270747998
0.000238518978
0.000205127921
0.000170558929
0.000134796194
9.78240045e-05
5.96267516e-05
2.01889339e-05
2.05048364e-05
6.24698277e-05
0.000105721184
0.000150273916
0.000196142902
0.000243342875
0.000291888419
0.000341793966
0.000393073789
0.000445741992
0.00049981251
0.000555299102
0.00061221534
0.000670574611
0.000730390105
0.000791674813
0.000854441519
0.000918702795
0.000984470995
0.00105175825
0.00112057647
0.0011909373
0.00126285219
0.00133633231
0.00141138859
0.00148803169
0.00156627203
0.00164611975
0.0017275847
0.00181067647
0.00189540437
0.00198177739
0.00206980425
0.00215949336
0.00225085282
0.00234389042
0.00243861364
0.00253502962
0.00263314519
0.00273296683
0.0028345007
0.00293775261
0.00304272801
0.003149432
0.00325786935
0.00336804442
0.00347996125
0.00359362346
0.00370903434
0.00382619677
0.00394511325
0.00406578589
0.0041882164
0.0043124061
0.00443835591
0.00456606632
0.00469553743
0.00482676891
0.00495976003
0.00509450962
0.00523101609
0.00536927741
0.00550929112
0.00565105432
0.00579456368
0.00593981542
0.00608680529
0.00623552863
0.00638598028
0.00653815466
0.0066920457
0.0068476469
0.00700495126
0.00716395133
0.00732463919
0.00748700644
0.0076510442
0.00781674313
0.00798409339
0.00815308467
0.00832370617
0.00849594661
0.00866979421
0.00884523672
0.00902226139
0.00920085497
0.00938100373
0.00956269344
0.00974590938
0.00993063632
0.0101168586
0.0103045599
0.0104937235
0.0106843324
0.0108763686
0.0110698141
0.0112646502
0.0114608575
0.0116584165
0.0118573069
0.012057508
0.0122589987
0.0124617572
0.0126657613
0.0128709884
0.0130774153
0.0132850183
0.0134937733
0.0137036555
0.01391464
0.014126701
0.0143398124
0.0145539477
0.0147690798
0.0149851812
0.0152022238
0.0154201791
0.0156390181
0.0158587115
0.0160792294
0.0163005413
0.0165226165
0.0167454237
0.0169689312
0.0171931068
0.0174179179
0.0176433314
0.0178693139
0.0180958314
0.0183228497
0.0185503339
0.0187782488
0.0190065588
0.0192352279
0.0194642198
0.0196934976
0.019923024
0.0201527616
0.0203826722
0.0206127176
0.020842859
0.0210730574
0.0213032732
0.0215334667
0.0217635976
0.0219936256
0.0222235098
0.022453209
0.0226826817
0.0229118862
0.0231407803
0.0233693216
0.0235974674
0.0238251748
0.0240524005
0.0242791009
0.0245052323
0.0247307506
0.0249556115
0.0251797705
0.0254031827
0.0256258033
0.0258475869
0.0260684883
0.0262884616
0.0265074613
0.0267254412
0.0269423553
0.0271581571
0.0273728003
0.0275862383
0.0277984242
0.0280093112
0.0282188523
0.0284270004
0.0286337084
0.0288389289
0.0290426145
0.029244718
0.0294451917
0.0296439881
0.0298410597
0.0300363588
0.030229838
0.0304214494
0.0306111456
0.0307988789
0.0309846017
0.0311682665
0.0313498258
0.0315292322
0.0317064383
0.0318813968
0.0320540604
0.0322243822
0.032392315
0.0325578121
0.0327208267
0.0328813122
0.0330392222
0.0331945103
0.0333471306
0.0334970371
0.0336441841
0.0337885262
0.033930018
0.0340686146
0.0342042711
0.0343369431
0.0344665863
0.0345931567
0.0347166106
0.0348369048
0.034953996
0.0350678417
0.0351783993
0.0352856269
0.0353894827
0.0354899255
0.0355869144
0.0356804088
0.0357703686
0.0358567541
0.035939526
0.0360186455
0.0360940743
0.0361657744
0.0362337084
0.0362978394
0.0363581308
0.0364145469
0.036467052
0.0365156115
0.0365601909
0.0366007565
0.0366372749
0.0366697137
0.0366980407
0.0367222245
0.0367422342
0.0367580396
0.0367696111
0.0367769197
0.0367799372
0.0367786358
0.0367729886
0.0367629694
0.0367485525
0.0367297129
0.0367064267
0.0366786701
0.0366464206
0.0366096562
0.0365683555
0.0365224982
0.0364720644
0.0364170354
0.0363573929
0.0362931195
0.0362241988
0.0361506151
0.0360723534
0.0359893996
0.0359017406
0.0358093639
0.0357122581
0.0356104124
0.0355038172
0.0353924634
0.0352763431
0.0351554491
0.0350297753
0.0348993164
0.0347640679
0.0346240264
0.0344791893
0.0343295551
0.034175123
0.0340158935
0.0338518678
0.0336830479
0.0335094373
0.0333310399
0.033147861
0.0329599066
0.0327671838
0.0325697008
0.0323674667
0.0321604914
0.0319487862
0.0317323632
0.0315112354
0.031285417
0.0310549232
0.0308197702
0.0305799751
0.0303355563
0.030086533
0.0298329255
0.0295747551
0.0293120444
0.0290448166
0.0287730963
0.028496909
0.0282162812
0.0279312406
0.0276418158
0.0273480366
0.0270499336
0.0267475388
0.0264408848
0.0261300057
0.0258149364
0.0254957128
0.025172372
0.0248449522
0.0245134923
0.0241780325
0.0238386141
0.0234952793
0.0231480714
0.0227970346
0.0224422143
0.0220836569
0.0217214096
0.0213555209
0.0209860403
0.020613018
0.0202365056
0.0198565554
0.0194732209
0.0190865565
0.0186966176
0.0183034604
0.0179071425
0.017507722
0.0171052584
0.0166998117
0.0162914432
0.015880215
0.0154661901
0.0150494326
0.0146300073
0.01420798
0.0137834175
0.0133563873
0.012926958
0.0124951989
0.0120611803
0.0116249732
0.0111866496
0.0107462822
0.0103039447
0.00985971153
0.00941365786
0.00896585975
0.008516394
0.00806533821
0.00761277072
0.00715877064
0.00670341779
0.00624679276
0.00578897681
0.00533005192
0.00487010077
0.00440920669
0.00394745369
0.00348492643
0.00302171018
0.00255789086
0.00209355499
0.00162878966
0.00116368255
0.000698321926
0.000232796563
0.00023280421
0.000698390553
0.00116387213
0.0016291581
0.00209415719
0.00255877763
0.00302292726
0.00348651345
0.00394944322
0.00441162317
0.00487295953
0.00533335821
0.00579272474
0.00625096438
0.00670798207
0.00716368247
0.00761796998
0.00807074876
0.00852192274
0.00897139565
0.00941907104
0.00986485227
0.0103086426
0.010750345
0.0111898627
0.0116270983
0.0120619549
0.012494335
0.0129241416
0.0133512773
0.0137756449
0.0141971472
0.0146156869
0.0150311669
0.0154434904
0.0158525603
0.0162582799
0.0166605526
0.0170592819
0.0174543717
0.0178457259
0.0182332488
0.0186168448
0.0189964187
0.0193718756
0.0197431209
0.0201100603
0.0204726
0.0208306465
0.0211841067
0.021532888
0.0218768982
0.0222160456
0.0225502391
0.022879388
0.0232034021
0.0235221919
0.0238356685
0.0241437435
0.0244463293
0.0247433387
0.0250346854
0.0253202838
0.0256000489
0.0258738965
0.0261417432
0.0264035065
0.0266591044
0.0269084561
0.0271514814
0.0273881011
0.0276182368
0.0278418112
0.0280587478
0.0282689711
0.0284724066
0.0286689809
0.0288586216
0.0290412571
0.0292168173
0.0293852329
0.0295464358
0.0297003591
0.029846937
0.0299861049
0.0301177994
0.0302419584
0.030358521
0.0304674275
0.0305686195
0.03066204
0.0307476333
0.0308253451
0.0308951223
0.0309569133
0.0310106679
0.0310563374
0.0310938745
0.0311232333
0.0311443694
0.0311572401
0.0311618039
0.0311580211
0.0311458534
0.0311252643
0.0310962186
0.031058683
0.0310126256
0.0309580163
0.0308948266
0.0308230298
0.0307426007
0.0306535159
0.0305557539
0.0304492948
0.0303341203
0.0302102142
0.0300775619
0.0299361508
0.0297859698
0.0296270099
0.029459264
0.0292827266
0.0290973943
0.0289032656
0.0287003408
0.0284886221
0.0282681138
0.0280388221
0.0278007549
0.0275539225
0.0272983368
0.027034012
0.026760964
0.0264792111
0.0261887731
0.0258896724
0.025581933
0.0252655811
0.0249406452
0.0246071554
0.0242651444
0.0239146465
0.0235556984
0.0231883388
0.0228126085
0.0224285504
0.0220362097
0.0216356334
0.0212268709
0.0208099735
0.020384995
0.019951991
0.0195110193
0.01906214
0.0186054153
0.0181409094
0.0176686889
0.0171888223
0.0167013806
0.0162064366
0.0157040655
0.0151943445
0.0146773532
0.0141531731
0.013621888
0.0130835839
0.0125383488
0.0119862729
0.0114274488
0.0108619709
0.0102899359
0.00971144265
0.00912659217
0.00853548755
0.00793823403
0.00733493896
0.00672571184
0.00611066425
0.00548990989
0.00486356454
0.00423174608
0.00359457449
0.00295217178
0.00230466206
0.00165217147
0.000994828218
0.000332762517
0.000333893377
0.0010050052
0.00168043669
0.0023600496
0.0030437037
0.0037312568
0.00442256475
0.00511748149
0.00581585902
0.00651754742
0.00722239489
0.00793024778
0.00864095053
0.00935434576
0.0100702743
0.010788575
0.0115090852
0.0122316403
0.0129560739
0.0136822178
0.0144099024
0.0151389561
0.0158692057
0.0166004764
0.0173325917
0.0180653735
0.0187986422
0.0195322163
0.0202659132
0.0209995485
0.0217329364
0.0224658895
0.023198219
0.0239297347
0.0246602451
0.025389557
0.0261174762
0.026843807
0.0275683523
0.028290914
0.0290112925
0.029729287
0.0304446957
0.0311573154
0.0318669419
0.03257337
0.0332763931
0.0339758038
0.0346713937
0.0353629532
0.036050272
0.0367331387
0.0374113411
0.038084666
0.0387528997
0.0394158272
0.0400732331
0.0407249013
0.0413706148
0.042010156
0.0426433067
0.043269848
0.0438895607
0.0445022249
0.0451076201
0.0457055255
0.0462957198
0.0468779815
0.0474520886
0.0480178186
0.0485749491
0.0491232573
0.0496625201
0.0501925144
0.050713017
0.0512238043
0.051724653
0.0522153397
0.052695641
0.0531653335
0.0536241939
0.0540719994
0.0545085268
0.0549335536
0.0553468574
0.055748216
0.0561374078
0.0565142113
0.0568784057
0.0572297704
0.0575680855
0.0578931317
0.0582046899
0.0585025422
0.0587864709
0.0590562593
0.0593116913
0.0595525516
0.0597786259
0.0599897006
0.0601855631
0.0603660018
0.0605308059
0.060679766
0.0608126735
0.0609293211
0.0610295024
0.0611130127
0.061179648
0.0612292061
0.0612614857
0.0612762873
0.0612734125
0.0612526646
0.0612138482
0.0611567695
0.0610812365
0.0609870587
0.0608740471
0.0607420147
0.0605907761
0.0604201478
0.060229948
0.060019997
0.0597901169
0.0595401316
0.0592698675
0.0589791524
0.0586678168
0.0583356929
0.0579826154
0.0576084209
0.0572129484
0.0567960394
0.0563575373
0.0558972883
0.0554151407
0.0549109455
0.0543845559
0.053835828
0.0532646202
0.0526707936
0.0520542119
0.0514147416
0.0507522518
0.0500666143
0.049357704
0.0486253984
0.0478695778
0.0470901256
0.0462869281
0.0454598745
0.0446088571
0.0437337713
0.0428345154
0.0419109909
0.0409631027
0.0399907584
0.0389938694
0.0379723498
0.0369261174
0.0358550932
0.0347592015
0.0336383699
0.0324925297
0.0313216155
0.0301255652
0.0289043206
0.0276578266
0.0263860321
0.0250888892
0.023766354
0.0224183859
0.0210449483
0.0196460081
0.018221536
0.0167715064
0.0152958977
0.0137946919
0.0122678749
0.0107154365
0.00913737033
0.00753367396
0.00590434889
0.0042494006
0.00256883851
0.000862676063
0.000869069293
0.00262637606
0.0044092187
0.00621756756
0.00805138894
0.00991064497
0.0117952937
0.013705289
0.0156405806
0.017601114
0.0195868305
0.0215976674
0.0236335574
0.0256944292
0.0277802073
0.0298908119
0.0320261587
0.0341861594
0.0363707213
0.0385797473
0.0408131363
0.0430707824
0.0453525758
0.0476584022
0.0499881428
0.0523416747
0.0547188706
0.0571195987
0.059543723
0.061991103
0.064461594
0.0669550466
0.0694713075
0.0720102186
0.0745716178
0.0771553382
0.079761209
0.0823890546
0.0850386954
0.0877099473
0.0904026217
0.0931165258
0.0958514625
0.0986072302
0.101383623
0.104180431
0.10699744
0.10983443
0.112691179
0.115567459
0.118463039
0.121377683
0.12431115
0.127263197
0.130233574
0.133222029
0.136228305
0.13925214
0.142293269
0.145351424
0.148426329
0.151517707
0.154625277
0.157748753
0.160887845
0.164042258
0.167211696
0.170395855
0.17359443
0.176807112
0.180033586
0.183273536
0.186526639
0.18979257
0.193071001
0.196361598
0.199664025
0.202977942
0.206303005
0.209638867
0.212985175
0.216341576
0.219707711
0.223083218
0.226467733
0.229860885
0.233262304
0.236671614
0.240088436
0.243512387
0.246943083
0.250380135
0.253823151
0.257271736
0.260725493
0.26418402
0.267646913
0.271113766
0.274584168
0.278057707
0.281533966
0.285012529
0.288492973
0.291974875
0.295457809
0.298941344
0.302425051
0.305908493
0.309391237
0.312872841
0.316352865
0.319830865
0.323306396
0.32677901
0.330248255
0.333713681
0.337174833
0.340631254
0.344082487
0.347528072
0.350967546
0.354400446
0.357826307
0.361244661
0.364655042
0.368056977
0.371449996
0.374833627
0.378207394
0.381570822
0.384923435
0.388264755
0.391594302
0.394911597
0.398216158
0.401507504
0.404785152
0.408048618
0.411297418
0.414531067
0.41774908
0.420950969
0.42413625
0.427304434
0.430455034
0.433587564
0.436701534
0.439796458
0.442871846
0.445927212
0.448962066
0.451975922
0.454968291
0.457938686
0.460886621
0.463811608
0.466713161
0.469590794
0.472444023
0.475272363
0.478075331
0.480852443
0.483603217
0.486327173
0.48902383
0.49169271
0.494333335
0.496945228
0.499527913
0.502080918
0.504603769
0.507095995
0.509557128
0.511986698
0.514384241
0.516749292
0.519081389
0.52138007
0.523644878
0.525875356
0.528071049
0.530231506
0.532356277
0.534444913
0.536496971
0.538512007
0.540489581
0.542429255
0.544330596
0.54619317
0.548016548
0.549800304
0.551544015
0.553247261
0.554909623
0.556530687
0.558110044
0.559647284
0.561142005
0.562593804
0.564002284
0.565367053
0.566687718
0.567963895
0.569195199
0.570381253
0.57152168
0.572616111
0.573664177
0.574665515
0.575619767
0.576526578
0.577385598
0.578196479
0.578958881
0.579672465
0.5803369
0.580951856
0.58151701
0.582032043
0.58249664
0.582910493
0.583273296
0.58358475
0.583844559
0.584052435
0.584208092
0.584311251
0.584361637
0.584358981
0.58430302
0.584193494
0.584030152
0.583812744
0.583541029
0.58321477
0.582833736
0.582397702
0.581906448
0.581359759
0.580757429
0.580099254
0.579385037
0.578614589
0.577787725
0.576904265
0.575964039
0.574966878
0.573912623
0.57280112
0.57163222
0.570405783
0.569121672
0.567779759
0.56637992
0.564922041
0.56340601
0.561831724
0.560199087
0.558508009
0.556758404
0.554950197
0.553083317
0.5511577
0.549173288
0.547130032
0.545027887
0.542866817
0.540646791
0.538367787
0.536029787
0.533632782
0.531176769
0.528661753
0.526087744
0.523454761
0.520762828
0.518011978
0.515202249
0.512333688
0.509406348
0.506420288
0.503375576
0.500272285
0.497110498
0.493890303
0.490611795
0.487275076
0.483880256
0.480427452
0.476916789
0.473348396
0.469722412
0.466038982
0.462298259
0.458500402
0.454645578
0.450733961
0.446765732
0.442741078
0.438660195
0.434523285
0.430330557
0.426082229
0.421778523
0.41741967
0.413005908
0.408537482
0.404014643
0.39943765
0.39480677
0.390122274
0.385384444
0.380593565
0.375749932
0.370853845
0.365905611
0.360905546
0.355853971
0.350751214
0.345597609
0.340393499
0.335139233
0.329835165
0.324481658
0.31907908
0.313627807
0.308128221
0.302580711
0.296985671
0.291343503
0.285654616
0.279919423
0.274138347
0.268311815
0.262440259
0.256524121
0.250563846
0.244559888
0.238512705
0.232422761
0.226290528
0.220116482
0.213901108
0.207644893
0.201348332
0.195011926
0.188636183
0.182221613
0.175768735
0.169278072
0.162750155
0.156185517
0.149584698
0.142948246
0.13627671
0.129570647
0.122830618
0.116057192
0.109250939
0.102412437
0.0955422678
0.0886410189
0.0817092821
0.0747476544
0.0677567375
0.0607371376
0.0536894658
0.0466143376
0.0395123733
0.0323841974
0.0252304387
0.0180517305
0.0108487104
0.00362201996
0.00362769507
0.0108997849
0.0181935958
0.0255084702
0.0328437467
0.0401987601
0.0475728415
0.0549653187
0.0623755157
0.0698027532
0.0772463485
0.0847056156
0.0921798655
0.0996684059
0.107170541
0.114685574
0.122212802
0.129751522
0.137301027
0.144860608
0.152429554
0.160007149
0.167592677
0.175185419
0.182784654
0.190389659
0.197999708
0.205614074
0.213232028
0.220852838
0.228475772
0.236100096
0.243725074
0.251349968
0.25897404
0.266596551
0.274216758
0.281833919
0.289447293
0.297056134
0.304659697
0.312257237
0.319848008
0.327431263
0.335006255
0.342572235
0.350128456
0.35767417
0.365208629
0.372731084
0.380240788
0.387736991
0.395218947
0.402685909
0.410137128
0.41757186
0.424989357
0.432388876
0.439769672
0.447131001
0.454472122
0.461792293
0.469090775
0.476366827
0.483619714
0.490848699
0.498053047
0.505232027
0.512384906
0.519510956
0.52660945
0.533679661
0.540720868
0.547732348
0.554713384
0.561663258
0.568581257
0.575466669
0.582318786
0.589136901
0.595920312
0.602668317
0.60938022
0.616055325
0.622692943
0.629292384
0.635852965
0.642374004
0.648854824
0.65529475
0.661693112
0.668049243
0.67436248
0.680632165
0.686857642
0.693038261
0.699173376
0.705262343
0.711304524
0.717299287
0.723246001
0.729144043
0.734992792
0.740791633
0.746539956
0.752237156
0.757882631
0.763475787
0.769016033
0.774502784
0.779935459
0.785313486
0.790636293
0.795903319
0.801114005
0.806267797
0.811364151
0.816402524
0.821382382
0.826303195
0.83116444
0.835965601
0.840706166
0.84538563
0.850003494
0.854559267
0.859052463
0.863482601
0.867849209
0.872151821
0.876389977
0.880563223
0.884671113
0.888713208
0.892689075
0.896598287
0.900440427
0.904215082
0.907921847
0.911560325
0.915130125
0.918630864
0.922062166
0.925423662
0.928714991
0.931935798
0.935085738
0.938164472
0.941171667
0.944107001
0.946970157
0.949760826
0.952478708
0.95512351
0.957694946
0.96019274
0.962616621
0.964966327
0.967241606
0.969442211
0.971567904
0.973618457
0.975593646
0.977493259
0.979317091
0.981064943
0.982736627
0.984331961
0.985850773
0.987292899
0.988658182
0.989946474
0.991157635
0.992291535
0.99334805
0.994327065
0.995228475
0.99605218
0.996798093
0.997466131
0.998056221
0.998568301
0.999002313
0.99935821
0.999635954
0.999835513
0.999956867
1
0.999964908
0.999851595
0.999660071
0.999390358
0.999042484
0.998616486
0.99811241
0.997530309
0.996870246
0.996132293
0.995316527
0.994423038
0.993451921
0.992403281
0.99127723
0.99007389
0.98879339
0.987435868
0.986001471
0.984490352
0.982902675
0.98123861
0.979498337
0.977682043
0.975789923
0.973822182
0.971779031
0.969660691
0.967467388
0.96519936
0.962856849
0.960440109
0.957949399
0.955384988
0.95274715
0.950036169
0.947252338
0.944395954
0.941467325
0.938466766
0.935394598
0.932251151
0.929036764
0.92575178
0.922396552
0.91897144
0.915476811
0.911913039
0.908280507
0.904579603
0.900810724
0.896974272
0.893070659
0.889100302
0.885063625
0.880961059
0.876793043
0.872560022
0.868262448
0.863900778
0.859475479
0.854987022
0.850435884
0.845822552
0.841147515
0.836411271
0.831614324
0.826757183
